0,8.66478705948146
0.021449999999561,8.72084673662306
0.0429500000001415,9.24409355036678
0.0645000000004625,-11.3365197254236
0.0859500000000235,10.888855973287
0.107449999999245,30.2270969034354
0.128966666666432,30.3583353005315
0.150466666667013,4.29361125539634
0.171900000000047,5.30208500023367
0.193399999999189,16.9107175677696
0.214899999999849,39.7017707674115
0.23634999999941,11.1505608430927
0.257849999999991,6.53487512132345
0.279350000000651,18.0708429500264
0.300899999999533,-6.24870248585809
0.322400000000194,-8.05691482937476
0.343899999999415,11.3935818799703
0.365449999999736,23.8183673606413
0.386900000000656,-13.8696345671617
0.408399999999798,-11.243371812626
0.429916666666985,-6.97577575810775
0.451466666665947,-62.867072708635
0.47290000000034,0.0373236104289003
0.494399999999562,20.504031869238
0.515900000000142,-9.90189482864201
0.537399999999364,-7.75868740893319
0.558900000000024,0.261269743654206
0.580400000000685,-8.15010811100116
0.601949999999567,77.4172154067044
0.623450000000148,16.3681488687935
0.644949999999369,22.0392780297736
0.66645000000003,43.6269895690559
0.688016666666877,21.45883774505
0.709533333332626,39.8895266561601
0.730966666667019,8.5713553314745
0.752483333332847,14.7220088283837
0.773900000000634,12.6462180592693
0.795466666666123,-37.5514640360919
0.817016666666444,33.8840086448054
0.838516666667024,2.74385272421644
0.859966666666585,35.1034335067529
0.881466666667246,59.219631228337
0.903016666666128,44.4724405141694
0.924516666666708,45.336792173084
0.946066666667029,72.05639983813
0.967566666666251,38.9883475171376
0.989066666666911,33.6589089012317
1.010533333333,76.6430235533384
1.03198333333392,47.911733467916
1.05346666666661,19.9986028015916
1.07689999999966,77.0395494015338
1.09849999999972,57.1861556034886
1.1199499999992,97.4458272665096
1.14144999999986,15.6385584378923
1.16289999999935,33.0961934167242
1.18440000000001,86.3742854430818
1.20589999999923,40.0021827753066
1.22761666666658,52.9141498799046
1.24911666666724,54.1935770901492
1.27039999999969,48.1561236059302
1.29201666666628,29.8333975037606
1.3135666666666,120.595640658256
1.33501666666608,58.1086727157144
1.3565666666664,20.8971703577184
1.37836666666654,45.9945275349923
1.40043333333312,-42.1143948535575
1.4220333333331,129.764331914332
1.44348333333258,67.8123905785973
1.46503333333298,88.3601063925752
1.48653333333364,71.7733802382997
1.50803333333278,88.9465116305192
1.52953333333344,86.1284638164331
1.55118333333316,176.069867225944
1.57293333333365,196.422419016748
1.59444999999939,88.0952954445157
1.61601666666624,135.801373660708
1.63750000000038,90.7060427079013
1.65905000000062,142.530570816237
1.68054999999976,99.8518695130665
1.7020500000005,116.813970276178
1.72518333333263,79.5892180292115
1.74683333333379,135.896639770421
1.76838333333259,125.330559653381
1.78988333333333,138.316864079733
1.81143333333365,137.306740376644
1.83319999999922,214.311901563611
1.85460000000048,161.286803539557
1.8760999999997,191.136191871565
1.89755000000062,163.582498091115
1.91900000000018,190.636624010621
1.9404833333328,161.478080660731
1.96198333333346,171.777040511979
1.9834833333326,174.881392225113
2.00509999999919,254.17545361386
2.02664999999951,146.766077637075
2.04815000000017,217.822359045668
2.06995000000031,160.387875955675
2.09160000000003,107.834137868302
2.11383333333363,234.184309630381
2.13526666666659,205.255135965568
2.157133333333,223.265361642231
2.17894999999967,189.19577651884
2.20049999999999,216.568408033575
2.22203333333378,226.297648878059
2.24368333333342,339.373740999878
2.26530000000001,304.519904441816
2.28756666666674,241.770653445709
2.30926666666613,253.80684721266
2.33111666666593,286.596910876312
2.35278333333362,315.164148627553
2.37453333333258,248.008879202752
2.39773333333393,258.250907947969
2.41958333333374,248.16394191419
2.44210000000037,421.773641125371
2.46361666666612,326.708446365083
2.48543333333279,287.454845892259
2.50696666666658,308.118226102807
2.52846666666724,330.731193283464
2.55031666666697,240.608908151944
2.57193333333364,355.175875424644
2.59348333333396,332.674771557949
2.61503333333284,350.370193369162
2.63653333333342,336.642248009715
2.65803333333264,369.614133514546
2.6795333333333,404.976172971016
2.70103333333396,360.261135083805
2.7225333333331,369.495657552191
2.74439999999951,330.652677000215
2.76604999999924,418.251546439375
2.7874500000005,433.208635054949
2.80970000000062,397.079378600917
2.83141666666661,394.14531121087
2.85296666666693,428.146085703278
2.87471666666598,299.673121233432
2.89651666666612,372.59648506835
2.91843333333363,458.360120982703
2.94003333333361,455.818608825107
2.96153333333283,428.185933002103
2.98303333333349,450.218759664179
3.00458333333381,435.282620575286
3.02608333333295,457.099247478165
3.04760000000014,451.23837532222
3.06915000000046,469.317929565554
3.09063333333316,465.169031939018
3.11213333333374,483.749305823148
3.13395000000049,482.1621036183
3.15555000000047,421.753736959486
3.17704999999969,494.850386038648
3.19860000000001,486.04037769526
3.22009999999923,504.45835880429
3.24170000000065,552.345468583041
3.26340000000004,515.998501362938
3.28501666666654,560.249019700809
3.30656666666687,582.568596615309
3.32813333333379,507.845660930599
3.3496833333326,553.523284714429
3.37138333333342,556.265574557145
3.39291666666721,569.607456401409
3.41446666666609,627.088276043432
3.43581666666625,583.772268786055
3.45741666666624,610.903348622733
3.47901666666622,593.246161776903
3.50056666666654,575.982922575747
3.5220166666661,610.739447725127
3.54551666666693,677.3746563842
3.56701666666607,638.723464418465
3.58851666666673,687.980132977996
3.61001666666596,621.216869863605
3.6316333333339,628.752114561037
3.65313333333312,711.71823128469
3.67479999999937,716.005662268306
3.69638333333283,675.512187402001
3.71798333333281,737.464167259223
3.73958333333279,707.932642670202
3.76261666666704,702.757003372919
3.78530000000062,702.071382381384
3.80813333333326,762.72464745607
3.83094999999938,733.955927884706
3.85368333333262,768.724463841172
3.87656666666644,774.897846688073
3.89925000000003,755.24307702718
3.9220999999992,750.594981647722
3.94476666666625,799.755221228918
3.96758333333381,761.802086849819
3.99041666666645,833.710108770966
4.01370000000052,775.969332650117
4.03423333333342,778.953610371726
4.05490000000031,791.725712342271
4.07560000000032,860.665136892519
4.09618333333297,829.217787790947
4.11669999999935,820.580858220185
4.13723333333378,835.003282123491
4.15979999999999,846.483443464371
4.18033333333298,899.92572924217
4.2008833333325,887.005009723222
4.22140000000032,884.975097244067
4.24193333333331,879.038547212613
4.26244999999969,901.746091919071
4.28296666666607,930.274051624286
4.3035000000005,952.663895479586
4.32403333333348,963.617324523142
4.34454999999979,949.64250759913
4.36508333333285,934.922422152965
4.3856166666672,940.780626762204
4.40618333333332,952.124259604574
4.42671666666623,955.837854882747
4.44723333333261,967.856705159061
4.46776666666704,993.046741390887
4.48830000000003,1026.34110302886
4.50883333333302,1041.39979836777
4.52936666666592,1022.8491160673
4.55018333333331,1062.08816781031
4.57091666666646,1035.40713868358
4.59150000000046,1063.84442953574
4.61201666666693,1078.9017491055
4.63265000000067,1051.51665457544
4.65313333333392,1088.90047035595
4.6736500000003,1110.77909002391
4.69423333333295,1102.53566411028
4.71526666666702,1071.48965766206
4.73580000000001,1092.5381554365
4.756333333333,1099.92998504138
4.77706666666607,1091.50176036561
4.79766666666676,1149.81640344106
4.8182833333339,1127.91795499652
4.83891666666629,1220.27106447494
4.85953333333343,1200.64653340719
4.88011666666608,1141.745872715
4.90099999999973,1218.62969017456
4.92151666666612,1247.17625543936
4.9421000000002,1226.43551462715
4.96273333333395,1270.90569959676
4.98325000000033,1230.3081384134
5.00378333333332,1245.52811943915
5.02431666666623,1274.07916005365
5.04540000000004,1282.88223057779
5.06598333333261,1268.82112038403
5.08653333333364,1334.98955988048
5.10714999999935,1288.37880813506
5.12773333333343,1331.21460701687
5.14824999999981,1327.0532438645
5.16876666666628,1326.61896835741
5.18935000000036,1345.181363201
5.20998333333259,1359.98198756715
5.23061666666642,1413.01044993344
5.25123333333364,1378.22472344302
5.27181666666629,1396.07954890788
5.29245000000004,1436.11815750506
5.31308333333379,1447.3068893353
5.3337666666672,1414.81714766732
5.35438333333298,1457.69859359542
5.37503333333333,1509.03647172317
5.395666666667,1480.94152754303
5.41649999999955,1437.46630461407
5.43716666666644,1507.57951272098
5.45780000000018,1574.46287659227
5.47836666666623,1548.02462222593
5.49895000000031,1600.93687772882
5.5194833333333,1565.30637398383
5.53999999999968,1623.81010994251
5.56053333333259,1634.58198216753
5.58111666666676,1632.73753720968
5.60163333333314,1670.06279319283
5.62216666666613,1651.82992488743
5.64270000000048,1640.43015311555
5.66323333333346,1658.34270302752
5.68376666666645,1682.84161519629
5.70429999999936,1734.69443641186
5.72480000000065,1731.53274946985
5.74533333333364,1707.50526948219
5.76586666666655,1718.39164951185
5.78638333333301,1732.01906342662
5.80696666666702,1745.9185943405
5.82750000000001,1763.4384712954
5.84801666666639,1824.11890029256
5.86854999999938,1825.25341682054
5.8890833333338,1797.02302350028
5.90960000000019,1807.00172832815
5.93013333333317,1831.49677610457
5.95066666666608,1877.15769700695
5.97120000000051,1883.94853541173
5.99173333333342,1866.5005974905
6.0123499999992,1892.59029790973
6.03286666666702,1946.46566615476
6.05349999999941,1915.80765683639
6.07403333333376,1924.99249177432
6.09470000000064,1912.40728348538
6.11528333333329,2001.09232188516
6.13586666666594,1979.38893127865
6.15645000000002,1960.82875645766
6.17701666666607,2014.25562242296
6.19755000000049,1997.52073442094
6.21808333333348,1999.97757469499
6.23859999999986,2033.98669228083
6.25925000000014,2015.11888295541
6.27978333333313,2041.70714256374
6.30028333333298,2058.83673563428
6.32081666666597,2106.45243505973
6.34135000000032,2139.9597288473
6.3618666666667,2103.69791715368
6.38239999999969,2116.75997966019
6.40293333333259,2127.49707729979
6.42345000000049,2194.69287370438
6.4441333333339,2206.97051040215
6.46466666666689,2174.13377100869
6.48518333333327,2186.32072862633
6.50571666666626,2193.25763338848
6.52624999999925,2227.79058312506
6.5467833333336,2262.82318674009
6.56736666666625,2248.30871976373
6.58788333333407,2279.03521934191
6.60840000000053,2262.03209612565
6.62893333333344,2256.12830724603
6.64946666666642,2264.6694368473
6.66998333333281,2302.55321683091
6.69061666666655,2328.44642961173
6.71114999999954,2300.40448735609
6.73166666666592,2316.31118343901
6.75225000000001,2320.77944577266
6.772783333333,2333.29617364513
6.79329999999938,2361.31909710517
6.81383333333381,2417.51152979459
6.83443333333298,2359.44537984807
6.85494999999936,2441.0727263878
6.87548333333379,2441.994174257
6.89600000000017,2420.80661568218
6.91651666666655,2426.83389216039
6.93704999999954,2433.94943640749
6.95758333333253,2492.00065520316
6.97810000000035,2494.51377085758
6.99863333333326,2466.84082032697
7.01914999999972,2474.98060133321
7.03968333333263,2492.7107857071
7.06036666666612,2539.80563383859
7.08104999999953,2555.72662217162
7.10168333333328,2525.62508559865
7.12221666666626,2533.0962732113
7.14289999999967,2602.16775010778
7.16353333333342,2590.0136295343
7.1841499999992,2577.49464480006
7.20483333333261,2604.64018499603
7.22549999999957,2634.18711771166
7.24635000000001,2659.21540781196
7.26748333333348,2588.87706968141
7.28811666666723,2660.02798365889
7.30874999999954,2655.18204221781
7.32941666666642,2655.65807403255
7.35005000000017,2684.22729031017
7.37073333333358,2618.10216406633
7.39141666666699,2661.2890770136
7.412116666667,2754.55172844048
7.43285000000015,2673.32371858146
7.45353333333364,2726.26892187624
7.47418333333392,2764.73734211146
7.49476666666657,2760.58151800676
7.51540000000031,2767.78472562661
7.53603333333262,2806.84258417208
7.55666666666645,2798.76618591764
7.57733333333333,2809.59427219802
7.597966666667,2834.61312493495
7.61859999999939,2838.03875417527
7.63923333333314,2884.59162939804
7.65991666666655,2855.85789363365
7.68053333333377,2869.47115760633
7.70123333333379,2902.45092459493
7.72181666666643,2946.33279930453
7.74240000000052,2924.35507842956
7.76295000000004,2895.62088578203
7.78353333333261,2981.23347269202
7.8042166666661,2964.06808108025
7.82673333333257,3007.68681687115
7.847266666667,2974.35015157705
7.86784999999973,3027.87142252211
7.88836666666611,2996.17222066309
7.90895000000019,3038.07618508393
7.92953333333284,3083.35848815177
7.95011666666693,3061.84011493493
7.97068333333297,3057.10423959813
7.99123333333393,3113.68167193643
8.0119166666659,3121.13413576302
8.03249999999998,3103.32842898307
8.05299999999984,3111.1293518163
8.07353333333283,3103.02857912752
8.09411666666692,3124.59279781477
8.11468333333296,3185.1894634431
8.13526666666697,3147.97915656256
8.15580000000003,3182.63945626532
8.17708333333393,3212.96989927306
8.19776666666598,3237.50115630503
8.21834999999998,3229.24252197501
8.23888333333297,3259.48314380246
8.25950000000019,3230.03734450808
8.28015000000047,3293.59841296134
8.30073333333312,3268.97936927655
8.32141666666661,3278.85899597028
8.34214999999968,3245.12670193473
8.36301666666672,3262.27833550665
8.38370000000021,3289.18544065293
8.40431666666591,3355.9127161861
8.42494999999966,3315.58412736372
8.44558333333349,3379.64164075822
8.4662166666658,3327.48906091397
8.48715000000047,3368.60947739718
8.50773333333311,3410.272751775
8.52856666666702,3376.60828608716
8.54908333333349,3403.33135365802
8.56971666666579,3382.20701718578
8.59036666666607,3429.5966392349
8.61099999999982,3406.2514972276
8.63161666666704,3450.52693774356
8.65231666666698,3461.19143463292
8.67291666666623,3458.78486662188
8.69354999999998,3516.97984189031
8.71418333333381,3520.07898435238
8.73543333333313,3533.03458409625
8.75600000000069,3523.72315264975
8.77658333333334,3504.3109974034
8.79711666666625,3527.27337285693
8.81768333333381,3553.2709814139
8.83821666666671,3550.25239775768
8.85879999999936,3583.24323747256
8.87933333333379,3596.48628598236
8.8998666666667,3647.25122686517
8.92050000000053,3599.10576898474
8.9410000000003,3620.0021196212
8.96153333333329,3675.82507336274
8.98206666666628,3640.96541308864
9.00258333333258,3653.18431859367
9.02321666666641,3727.70648868496
9.04385000000016,3672.61859096642
9.0644833333339,3746.99973765825
9.08509999999969,3706.39815706783
9.10573333333343,3762.17030089343
9.12636666666718,3724.30963413211
9.14699999999957,3781.4325403497
9.16769999999951,3737.80852817053
9.18831666666673,3745.1472323664
9.20895000000048,3758.58979264805
9.22956666666626,3795.683191665
9.25086666666676,3784.92573953248
9.27138333333314,3796.6832339488
9.29216666666595,3814.60989146385
9.3127999999997,3827.12420002508
9.33348333333311,3872.69868298054
9.3540166666661,3904.34336973123
9.37474999999925,3851.65330446782
9.39536666666639,3878.26597440732
9.41589999999938,3882.75699898245
9.43653333333312,3926.68127339591
9.45718333333348,3907.86891094918
9.47779999999918,3938.11734080827
9.49843333333301,3936.31210914636
9.51905000000015,3947.32154275021
9.5396833333339,3980.52999182555
9.56031666666629,3975.80007028896
9.58104999999936,4025.60106408763
9.60188333333327,3964.19540937942
9.62251666666702,4006.64027388454
9.64303333333348,4082.04916220254
9.66366666666579,4042.9551825317
9.68429999999954,4107.93917025135
9.70496666666642,4033.13166190011
9.72560000000017,4067.23124308152
9.74625000000052,4100.84587023454
9.76688333333283,4080.90009550113
9.78756666666624,4136.81088865024
9.80829999999939,4171.06817735902
9.82906666666703,4181.49003758061
9.84980000000018,4165.88110111995
9.87046666666698,4146.22872476757
9.89109999999937,4166.6571366629
9.91183333333252,4260.8138527396
9.93251666666593,4147.1782886061
9.95305000000036,4196.71101572342
9.97366666666606,4274.35560169378
9.99429999999981,4230.64291555126
10.0149333333336,4258.48806625296
10.0355833333339,4253.87472137702
10.056266666666,4257.95146366604
10.0769499999994,4311.0733479968
10.0975666666666,4282.89628748384
10.1181833333338,4342.16179045845
10.1390166666663,4347.2729715628
10.1597499999994,4345.35127914842
10.1802833333338,4385.97172266614
10.2009166666661,4383.63749804984
10.2214333333339,4356.56306298605
10.2420166666666,4428.79167246004
10.2627,4388.74469629281
10.2833833333335,4446.29294332594
10.3040500000003,4423.46969062674
10.3246999999993,4406.13904636782
10.3454666666669,4436.58057561004
10.366366666667,4474.59236996685
10.3869333333331,4478.40202222707
10.4075166666672,4516.76988873403
10.4280500000002,4532.7174322183
10.4486166666662,4513.90494179794
10.4692000000003,4500.52700059868
10.4896833333336,4515.16982865735
10.5104000000002,4534.95617848505
10.5309333333331,4542.64837498
10.5515166666672,4540.40699596159
10.5721499999996,4579.77997611896
10.5927666666667,4628.88685171111
10.6133166666662,4591.55163550104
10.6339000000003,4635.66701107831
10.6544666666664,4659.47206282789
10.6749833333328,4640.74726305189
10.6955166666673,4663.69539160994
10.7163499999997,4712.86323687518
10.7369333333338,4701.63710153475
10.7575499999995,4703.66634139783
10.7784999999994,4631.49960069323
10.7991666666662,4719.2319933882
10.8198499999997,4710.02614888945
10.8404833333335,4720.76756071074
10.8611666666669,4723.91660068184
10.8818500000004,4731.94967251437
10.9025000000006,4766.69362184202
10.9231166666664,4737.95208348923
10.9437500000002,4807.14504433418
10.964366666666,4766.53896729161
10.9849999999997,4832.55963965357
11.0056833333331,4790.51534747831
11.02635,4749.27930742023
11.0469833333337,4822.25717251199
11.0676166666661,4855.64289270322
11.0882499999999,4857.72046444394
11.108833333334,4868.66800439741
11.1293500000003,4878.88652590952
11.1499833333326,4899.9634319682
11.1706166666664,4895.54544847591
11.1912500000002,4940.93209798741
11.2118833333339,4922.216983253
11.2325166666663,4979.56209585868
11.25315,4941.80571957162
11.2737666666672,5010.95220099759
11.294383333333,4975.12997727438
11.3150166666667,5035.56078063563
11.3356500000005,4985.71613701913
11.3562833333329,5060.26225341571
11.3769166666666,5014.68578226865
11.3974833333326,5034.27176200549
11.418016666667,5035.64135273148
11.4386499999994,5103.34911888241
11.4592833333331,5055.12862143507
11.4799000000003,5108.88738267377
11.5005499999992,5077.75489785618
11.521183333333,5133.33611800121
11.5417166666659,5092.16472484254
11.5623666666663,5101.3141703212
11.583,5149.79548998275
11.6036333333338,5123.97848395667
11.6242666666661,5160.42188242516
11.6448500000002,5146.88547457756
11.665466666666,5176.0028673019
11.6860999999997,5172.83433299536
11.7066333333326,5230.3530358148
11.7272666666664,5190.25966368284
11.7478833333336,5265.10016715928
11.768516666666,5221.56030061542
11.7890666666669,5223.67445509892
11.809633333333,5299.06807265288
11.8302666666667,5310.90618072373
11.8508833333339,5265.93470056557
11.8714166666669,5309.6037802043
11.8920333333326,5290.55955161358
11.9126166666667,5320.19855472996
11.9331499999997,5307.33570138613
11.9538333333331,5358.4316188989
11.9744500000003,5368.00369823721
11.995033333333,5376.65602241097
12.015566666666,5372.71016154297
12.0360833333338,5347.05652462728
12.0567166666661,5398.12410930032
12.0773666666665,5379.24546045927
12.0980000000002,5401.87229934526
12.1186333333325,5402.08532916009
12.1392333333331,5398.42218219702
12.1597666666661,5466.52458982926
12.1803000000005,5473.54196346177
12.2009833333339,5451.48198908463
12.2215000000003,5444.14515953106
12.2420333333333,5451.91129814409
12.262666666667,5508.65554369549
12.2832333333331,5514.46115202073
12.3038666666669,5472.98201938842
12.3244999999992,5505.27852992984
12.3450333333336,5549.14192989597
12.365716666667,5563.14447245142
12.3862999999997,5573.02096522419
12.4069333333335,5533.21288700527
12.4275500000006,5584.75226465962
12.4482333333326,5572.1463378514
12.4688499999998,5585.54094197838
12.4894333333339,5611.53277754546
12.5100666666663,5604.62960705975
12.5306500000004,5617.51848605727
12.5512666666661,5678.47861051881
12.5718500000002,5642.88639559823
12.5923833333332,5702.29989205224
12.6130166666669,5661.16804950239
12.6336833333338,5724.59667955199
12.6542333333333,5688.75342501277
12.6747666666663,5737.00672502977
12.6953833333334,5709.35158076403
12.7158999999998,5720.972192161
12.7365333333336,5775.82209137717
12.757216666667,5746.79005239491
12.7778499999994,5746.07151244288
12.7984666666666,5768.24784388825
12.8191000000003,5759.24229864288
12.8397833333338,5818.31892959112
12.8603166666667,5837.82664799266
12.8809333333339,5796.15355270764
12.9015166666666,5821.95232409679
12.9220999999992,5826.36052268943
12.9427499999995,5826.22414213991
12.963433333333,5874.4065473013
12.9840000000005,5847.76199031562
13.0046166666663,5865.0708930893
13.0252000000004,5864.93370338026
13.0458333333326,5866.80887839947
13.0664000000002,5875.04771809688
13.087033333334,5946.88888278765
13.1076666666663,5907.14059738971
13.1283,5973.15056409359
13.1489166666673,5934.62935022702
13.1694999999998,5925.34590368493
13.1900333333328,5939.34539522965
13.2106666666666,5989.34980040761
13.2311833333329,5954.20928434677
13.2518333333333,6026.55469260685
13.2723666666663,6006.47703522693
13.2929833333334,5984.97019003944
13.3135999999992,6019.80846826281
13.3343333333338,6074.4461672673
13.3551166666666,6025.85163631113
13.3757500000004,6103.12255883668
13.3963833333326,6053.23282932133
13.4170166666664,6108.76852309458
13.4376333333336,6066.09404756559
13.4582666666659,6127.35392171475
13.4789499999994,6041.71219285072
13.4995833333331,6096.6286098058
13.5202666666666,6145.32398212443
13.5409000000003,6116.8901703461
13.561483333333,6130.49631265556
13.5822166666661,6183.52496834715
13.6028333333333,6158.41548661671
13.623466666667,6202.99833433283
13.6440833333328,6159.32426346364
13.6646166666672,6221.4673551664
13.6852999999992,6253.9505030852
13.705933333333,6214.7584713577
13.7268666666663,6241.29630938015
13.7475499999997,6234.27676106714
13.7681833333334,6242.36200251146
13.7888000000006,6297.72543321596
13.809433333333,6258.51395241467
13.8300333333337,6271.49347513906
13.8508666666661,6281.08665907984
13.8714999999999,6309.46142602522
13.8919999999997,6361.99268768813
13.9126333333335,6317.19912672608
13.9332666666672,6369.29883840497
13.9538499999999,6353.6598169519
13.974466666667,6327.59575339205
13.9950499999997,6366.13842077602
14.0156833333335,6345.23911878945
14.0362666666661,6407.14466614622
14.0568833333333,6428.54198895921
14.0774666666659,6422.76279297013
14.0980999999997,6398.35721829932
14.11875,6450.20953710383
14.1393833333338,6417.9838669117
14.1599499999998,6431.4335020722
14.1804666666663,6440.21557799067
14.2011,6497.43705598516
14.2217166666673,6453.41083032587
14.2423499999996,6512.91900637356
14.263033333333,6549.82976290671
14.2836666666667,6492.90530785246
14.3041999999997,6514.38336597703
14.3248166666669,6517.36359225335
14.3453999999996,6546.63171282925
14.3660333333333,6547.13923548329
14.3865499999997,6596.09673768678
14.4072,6573.1261811457
14.4278833333335,6620.27725775116
14.4484666666661,6583.07019049869
14.4690833333333,6636.87616560514
14.4896499999994,6629.47083151972
14.5102833333331,6623.04937782224
14.5308166666661,6658.62629934763
14.5514499999999,6710.24923537183
14.572066666667,6674.3395610395
14.5926999999994,6716.86104971596
14.6133333333331,6692.84060782686
14.6339666666669,6734.54269471535
14.6545999999992,6699.85045468016
14.6752166666664,6726.34791023512
14.6957666666659,6727.5477786708
14.71635,6734.12487784694
14.7369666666672,6764.17115596896
14.7575333333333,6752.16750609913
14.778166666667,6775.14570391618
14.7988499999991,6775.82893970693
14.8195333333339,6838.78151839922
14.8401499999997,6852.380898967
14.8607333333338,6845.09959027355
14.8813666666661,6812.09005003284
14.9019999999999,6875.87444031518
14.9226833333333,6883.24352142793
14.9433000000005,6850.99842171977
14.9638833333331,6878.8103983979
14.9845333333334,6923.06233334875
15.0052166666669,6942.71250149144
15.0257333333333,6894.84794482954
15.046366666667,6941.52643520431
15.0668833333334,6979.75025956685
15.0875166666672,6929.78520135609
15.108133333333,6988.75747824512
15.1288166666664,6971.51354549007
15.1494500000002,6945.0313428693
15.1700833333339,6978.232190913
15.1907666666659,6974.05931709683
15.2114499999994,7023.65520253662
15.2320666666666,7057.25840103348
15.2526499999992,7036.22251574649
15.2732999999995,7023.76437956145
15.2939833333329,7028.40608769862
15.3145500000005,7055.61253513312
15.3351833333328,7097.76718183766
15.3558499999997,7100.69395646029
15.3764833333334,7065.43900776441
15.3970166666664,7130.31134548924
15.4175333333328,7112.58016562092
15.4381666666666,7100.85966210019
15.4588000000003,7112.9675216262
15.4794333333326,7108.09957024932
15.5000499999998,7135.3069086224
15.5206333333339,7155.71728016073
15.5412666666662,7135.08480259393
15.5619499999997,7193.36780282239
15.5826499999997,7206.88312996011
15.6032666666669,7161.56849130055
15.6239000000006,7222.84581799553
15.6444666666668,7197.2905408933
15.6651000000005,7200.54259193851
15.6857166666663,7213.67937400991
15.7063000000004,7206.0972430677
15.7269333333326,7261.33853685203
15.7475666666664,7227.06782410571
15.7682000000002,7274.99512848172
15.7887666666662,7302.1093014706
15.8094000000001,7253.47485371232
15.829933333333,7255.68025727824
15.8506166666665,7270.68540794066
15.8712500000002,7282.71435128487
15.8918833333339,7302.62197107717
15.9125666666659,7350.76359273625
15.9331833333331,7330.82362177909
15.9537499999992,7342.16132603591
15.9743333333333,7390.65353432851
15.9950166666668,7364.6082916629
16.0157000000002,7340.95791059894
16.0362333333332,7364.03323996063
16.0568500000004,7432.99601069876
16.0774833333326,7386.38238729217
16.0981666666661,7445.32733512443
16.1187999999998,7451.90967013619
16.1393166666662,7427.41964946589
16.1598666666673,7421.49996780909
16.1804499999998,7435.90224862707
16.2010833333337,7488.84671983488
16.2217333333339,7462.29175226544
16.2423166666666,7492.07106183704
16.263,7517.80541223335
16.2836333333338,7490.66388085498
16.3042166666664,7532.83448390704
16.3248333333336,7513.15634149456
16.3454666666659,7570.41050959503
16.3660000000003,7548.84448096216
16.3866333333326,7455.69897091761
16.4072499999999,7437.53030583567
16.4278833333336,7413.44156226009
16.4484833333328,7416.0493124387
16.4691166666665,7466.26229327624
16.4896833333326,7474.50301182897
16.5102999999998,7479.18321539113
16.5308333333328,7452.43421169262
16.5513499999992,7458.2069456126
16.571983333333,7526.52396390761
16.5926166666668,7489.25700241117
16.6131999999994,7449.17108048655
16.6338166666665,7516.80470034296
16.6544000000006,7514.39184815431
16.6750333333329,7571.00398719283
16.6957166666664,7569.9357662676
16.7163500000002,7546.00590589862
16.7370500000002,7575.21922658081
16.7575666666666,7584.07413057208
16.7782000000003,7564.59727577225
16.798783333333,7590.67853382555
16.8193833333336,7585.62051021582
16.8399666666662,7592.34556273453
16.8606499999997,7641.83493832753
16.8812833333335,7645.19559748237
16.9019166666672,7602.77412607625
16.9225833333326,7609.51683971416
16.9431666666668,7639.25560312313
16.9638000000005,7641.65495171327
16.9843333333335,7663.46935270318
17.0050000000004,7716.53518936571
17.0256499999992,7661.24251491338
17.046283333333,7681.43210821893
17.0669166666667,7711.56089594908
17.0874999999994,7744.26630678071
17.1081000000001,7720.78453117484
17.1287833333335,7731.72409777039
17.1494166666672,7725.52276479986
17.1700499999995,7758.35928031699
17.1906833333333,7740.97621769839
17.2113000000005,7785.47127680943
17.2319333333328,7762.63587752044
17.2525666666665,7826.07336250933
17.27325,7849.44124984088
17.2938333333326,7797.68691450817
17.3145166666661,7819.22718401509
17.3350500000005,7818.42584767855
17.3556833333328,7853.4679592695
17.3763166666666,7826.32020540062
17.3969666666669,7877.36940639995
17.4175499999996,7857.62116246062
17.438233333333,7910.35365633521
17.4589166666664,7931.01436965018
17.4795500000001,7897.23981270094
17.5001166666663,7942.24858978208
17.52075,7891.00435013831
17.5414333333334,7903.54366680833
17.5621166666669,7950.10516815001
17.5826999999996,7912.66691625347
17.6032166666659,7978.71987017933
17.6238666666663,7951.86633557792
17.6443999999992,7952.36961334444
17.6649666666668,8008.6023413704
17.6855333333328,7973.16362309118
17.7062166666663,8022.45019439904
17.72685,8045.8292628511
17.7474833333338,8000.23162484541
17.7680499999998,8020.41564601815
17.7886833333336,8068.20346080243
17.809366666667,8033.14196391446
17.8300500000005,8028.49398913809
17.850733333334,8045.57399936284
17.8713499999997,8084.2961913602
17.8919333333338,8059.69225126886
17.9125833333326,8099.39904753077
17.9332166666664,8074.22558605014
17.9539999999992,8132.68387025963
17.9746666666661,8069.86860063634
17.9951833333339,8116.40733939972
18.0158166666662,8178.24028241287
18.0363500000007,8123.11973217865
18.056866666667,8138.95984975609
18.0775500000005,8213.89362433213
18.0981333333331,8126.22008343401
18.1188166666666,8209.31181253832
18.1394500000004,8219.13391197168
18.1600666666661,8161.26558200821
18.1806999999998,8228.51139369305
18.2013000000005,8227.33027180407
18.2219833333339,8254.61604412998
18.2425999999997,8203.62174276342
18.2631666666672,8222.14897866914
18.2837999999996,8262.72505889862
18.3044333333333,8248.95228975629
18.3251166666667,8254.08897641433
18.3457833333336,8316.5778808967
18.3664166666659,8319.3720211573
18.3870499999997,8275.40315288078
18.4077333333331,8290.62286028896
18.4283666666669,8313.85141811153
18.4490500000003,8308.20261148034
18.4697166666672,8323.03281944948
18.4903666666661,8369.67047613594
18.5110499999995,8363.03541639123
18.5315833333339,8345.17432842304
18.5521999999997,8346.31009920374
18.5728166666669,8365.58141149635
18.5935000000003,8357.54479972987
18.6141833333338,8401.66665522152
18.6348666666672,8407.12699364235
18.6554999999996,8448.19148140835
18.6761166666668,8391.09599319951
18.6966999999993,8409.69020489426
18.7173833333328,8458.85485365912
18.7380666666662,8426.91672532204
18.7587499999997,8416.9130666596
18.7794499999997,8467.90177131954
18.8000666666669,8455.6608112258
18.8206499999995,8468.99096564394
18.8412666666668,8470.69319480187
18.8618499999994,8531.23918429172
18.8825166666663,8512.36539722188
18.90315,8487.19370251798
18.9237833333323,8519.08508730443
18.9444666666672,8567.76839628984
18.9650000000002,8525.67433820799
18.985616666666,8528.00962324247
19.0062000000001,8549.47830064502
19.0268833333335,8556.7192059037
19.0475166666672,8546.37750661292
19.0681666666661,8578.4208914683
19.0887833333333,8572.33162813215
19.109416666667,8605.19775646956
19.1301000000005,8624.75990702659
19.1507166666663,8590.61644359454
19.17135,8639.13808470083
19.1920166666669,8607.28345605159
19.2126499999992,8625.52687587402
19.233283333333,8623.92331624912
19.2539166666667,8637.04220891052
19.2746000000002,8680.42366856862
19.2951666666663,8632.99208485078
19.3158499999997,8694.71339834856
19.3364833333335,8644.66043776932
19.3571333333338,8680.07209824169
19.3777666666661,8696.96881651518
19.398433333333,8632.503446257
19.4191166666664,8714.61608222286
19.4397333333336,8748.70387700089
19.4602666666666,8740.2539682569
19.4808833333338,8708.2575826587
19.5014166666667,8747.21192354849
19.5220500000005,8734.22499258603
19.5427333333325,8755.31519137054
19.5634166666659,8734.6503851777
19.5840833333328,8757.87620417833
19.6046666666669,8770.55374045721
19.6253500000004,8768.48662364424
19.6458999999998,8805.57997800916
19.6665833333333,8835.03240404343
19.6872000000005,8793.76447986258
19.7078833333339,8847.93259002018
19.7284999999997,8857.17292369473
19.7491333333335,8828.12433121661
19.7697166666661,8831.93726136224
19.7903333333333,8882.50628315064
19.8110166666667,8898.77125498871
19.8315999999994,8895.79116000282
19.8522333333331,8859.41278109691
19.8728500000004,8902.77107600235
19.8934833333326,8874.46136439835
19.9141166666664,8915.51406909524
19.9348166666664,8906.26382792456
19.9554999999998,8944.36837115861
19.9761833333333,8878.37387326391
19.9966999999997,8894.91919375825
20.0172666666657,8935.15038715985
20.0378999999996,8919.67000737593
20.058583333333,8962.8433861848
20.0792499999999,8972.32105778956
20.0998833333336,8935.73527009072
20.120566666667,8951.25374693534
20.1411999999994,8979.751153381
20.1618333333332,8996.40753479002
20.1824666666669,8979.53033585605
20.2031333333338,8976.21896684423
20.2238166666672,9020.06454375318
20.2445166666672,9033.4835056119
20.2651499999995,9011.03521858884
20.2857333333336,9053.10538534299
20.3062333333335,9025.10269514263
20.3269166666669,9046.1864175919
20.3476000000004,9021.32371799398
20.3682833333338,9109.17253021698
20.3889166666661,9100.76926299061
20.4095333333333,9063.08753277807
20.430166666667,9113.45334006746
20.4507999999994,9077.93992176502
20.4714833333329,9127.14066734955
20.4921666666663,9165.04269041092
20.5127833333335,9148.63180314059
20.5333833333326,9156.11369305294
20.5539666666667,9135.50250961371
20.5746000000005,9114.43005742732
20.59515,9171.78534256502
20.6157833333338,9134.37190633335
20.6364166666661,9174.05971320828
20.6570999999996,9114.35492014672
20.6777333333333,9185.51939689859
20.6983500000005,9169.66330959191
20.7189333333332,9203.31785427215
20.7396166666666,9127.21595158441
20.7603,9207.05101954875
20.7809833333335,9243.50395398508
20.8016166666672,9254.24158889267
20.8222499999995,9206.59378282728
20.8428333333336,9212.15900109202
20.8634666666659,9254.16482898984
20.8840333333334,9253.47403037998
20.9047000000003,9222.84528310533
20.9253833333338,9243.42731993362
20.9460166666661,9239.06066184403
20.9666499999998,9314.08038662306
20.9872833333336,9265.76578353162
