
0,0
0.116666666666632,-4.805505729625473
0.216666666666647,-1.175626408656785
0.316666666666663,14.805940647322672
0.416666666666678,5.126011211340078
0.516666666666614,20.581864848709618
0.61666666666663,17.187071316012002
0.733333333333341,12.194488328028832
0.833333333333357,45.22438903013395
0.933333333333293,61.03368383001217
1.033333333333308,80.66103798953155
1.133333333333324,101.36364420731448
1.23333333333334,121.08432832668461
1.349999999999971,149.8315914246973
1.449999999999987,192.05490059758492
1.550000000000002,241.88419413071432
1.650000000000018,246.40972144889687
1.749999999999954,271.9187042200525
1.866666666666665,331.90319522420924
1.966666666666681,371.60997700640127
2.066666666666617,441.5635317752383
2.166666666666632,467.523184473296
2.266666666666648,492.6266568151433
2.366666666666664,547.8700556681622
2.483333333333295,603.4491943460041
2.583333333333311,615.2037746677046
2.683333333333326,681.9344370746088
2.783333333333342,710.8716104632383
2.883333333333358,751.39995242168
2.999999999999989,824.017815967126
3.100000000000005,859.5539659681325
3.200000000000021,892.7829786575653
3.299999999999956,931.9321261168077
3.399999999999972,1002.3776798181705
3.499999999999988,1038.5550713684027
3.616666666666619,1078.4556394102808
3.716666666666635,1121.7453739410018
3.81666666666665,1186.206673386942
3.933333333333282,1227.5192158121401
4.033333333333298,1272.5753858820206
4.133333333333313,1327.4577430338943
4.250000000000025,1340.589135123385
4.349999999999961,1402.7722235567485
4.449999999999976,1455.7417649983258
4.549999999999992,1495.358686237536
4.666666666666623,1537.5589913568022
4.766666666666639,1567.5312005393366
4.866666666666655,1620.6714517109397
4.96666666666667,1663.353497919484
5.066666666666686,1702.6578317770277
5.166666666666622,1747.602893801608
5.266666666666637,1787.7270052842161
5.383333333333349,1832.6263061532636
5.483333333333284,1869.3685738009124
5.5833333333333,1917.5315546292115
5.683333333333316,1954.7910482044952
5.783333333333331,1997.4353914051364
5.883333333333347,2036.205496024033
5.983333333333283,2090.628672854702
6.099999999999994,2134.707428349192
6.20000000000001,2162.9935151004643
6.299999999999946,2207.6281547701087
6.399999999999961,2246.6850841428222
6.499999999999977,2287.4951526196687
6.599999999999992,2336.712000896597
6.700000000000008,2392.309497928867
6.81666666666664,2435.251196866743
6.916666666666655,2484.6737910480924
7.016666666666671,2519.844684051074
7.116666666666687,2564.793536808056
7.216666666666622,2600.117462527309
7.316666666666638,2640.671910061277
7.416666666666654,2675.724905493537
7.533333333333285,2717.948169147786
7.633333333333301,2757.370617513537
7.733333333333316,2797.383177682224
7.833333333333332,2838.118158160315
7.933333333333348,2877.9852720394474
8.033333333333283,2923.2022775013356
8.149999999999995,2948.881656965121
8.25000000000001,2990.0908606689923
8.349999999999946,3030.314404727945
8.449999999999962,3080.2292275229893
8.549999999999978,3110.3060180462994
8.649999999999993,3147.6254328309524
8.750000000000009,3193.1462229552635
8.86666666666664,3222.8287275294265
8.966666666666656,3261.1985214040055
9.066666666666672,3302.9521770795454
9.166666666666687,3335.5625754578014
9.266666666666623,3381.3086651090507
9.366666666666639,3415.000992122509
9.466666666666654,3453.750587217726
9.583333333333286,3494.6413830414326
9.683333333333302,3530.3720098419954
9.783333333333317,3558.7530494417465
9.883333333333333,3598.5010588389528
9.983333333333348,3627.3702898325114
10.083333333333284,3676.2917816870154
10.199999999999996,3709.450635981969
10.300000000000011,3756.5969502391863
10.399999999999947,3776.5212451504226
10.499999999999963,3816.987740755723
10.599999999999978,3850.2688904233155
10.699999999999994,3889.650556969211
10.80000000000001,3923.9918411024787
10.916666666666641,3951.33011001678
11.016666666666657,3992.8109271144335
11.116666666666672,4025.5174913896276
11.216666666666688,4057.7332578805613
11.316666666666624,4083.960022537181
11.41666666666664,4018.395862175207
11.516666666666655,4053.4905958060617
11.633333333333287,4083.3802030406673
11.733333333333302,4122.502982096539
11.833333333333318,4153.344669647424
11.933333333333334,4188.880001772023
12.03333333333335,4226.334971021131
12.133333333333285,4254.73105530491
12.2333333333333,4282.483086058911
12.350000000000012,4328.364477980935
12.449999999999948,4350.644564682662
12.549999999999963,4383.119730282786
12.649999999999979,4419.585345763119
12.749999999999995,4454.862845393919
12.85000000000001,4486.438627410655
12.949999999999946,4523.010432023802
13.066666666666658,4558.41937199408
13.166666666666673,4597.189457281661
13.266666666666689,4634.629965373756
13.366666666666625,4670.824447690692
13.46666666666664,4709.13702694939
13.566666666666656,4746.31425408188
13.666666666666671,4784.361190696567
13.783333333333303,4820.8074237883775
13.883333333333319,4848.527826043697
13.983333333333334,4891.131432675783
14.08333333333335,4923.88030186136
14.183333333333286,4945.591896200106
14.283333333333301,4983.457360541854
14.383333333333317,5015.53163614405
14.499999999999948,5038.285817010333
14.599999999999964,5066.350924965875
14.69999999999998,5099.827640912637
14.799999999999995,5126.418682881796
14.900000000000011,5161.764691504907
14.999999999999947,5192.722108600205
15.116666666666658,5206.007499766903
15.216666666666674,5221.580281542904
15.31666666666669,5248.296619991042
15.416666666666625,5274.209613159804
15.51666666666664,5287.188521270653
15.616666666666656,5322.659375245394
15.716666666666672,5339.417263475814
15.833333333333304,5353.921959997679
15.93333333333332,5375.591984328079
16.033333333333335,5409.931266964598
16.13333333333335,5424.811363683033
16.233333333333285,5458.457225421561
16.3333333333333,5476.963555558082
16.433333333333316,5492.7946913476935
16.549999999999947,5513.7728471845285
16.649999999999963,5529.955192812371
16.74999999999998,5538.068554611066
16.849999999999994,5561.321177021852
16.95000000000001,5547.516276560979
17.049999999999947,5548.836164357684
17.149999999999963,5578.121134724481
17.266666666666673,5605.891764319909
17.36666666666669,5622.190581003653
17.466666666666626,5631.669909823506
17.56666666666664,5643.940974961652
17.666666666666657,5637.277465987561
17.766666666666673,5647.164012600509
17.86666666666669,5659.102134456291
17.98333333333332,5670.77093077217
18.083333333333336,5686.5537360426515
18.18333333333335,5686.629386987095
18.28333333333329,5707.254488411819
18.383333333333304,5806.399428827534
18.48333333333332,5813.633447786824
18.583333333333336,5825.872545282645
18.699999999999967,5845.588333174363
18.799999999999983,5847.86284548278
18.9,5853.986291810904
19.000000000000014,5864.053375774176
19.099999999999948,5873.669874956723
19.199999999999964,5876.590478546587
19.29999999999998,5893.124144093322
19.416666666666693,5902.009713050144
19.516666666666627,5914.813978068266
19.616666666666642,5920.233110734873
19.716666666666658,5922.306882664516
19.816666666666674,5930.851469895354
19.91666666666669,5940.293593599613
20.03333333333332,5954.173137552915
