0,8.66478705948146
0.021449999999561,8.72084673662306
0.0429500000001415,9.24409355036678
0.0645000000004625,-11.3365197254236
0.0859500000000235,10.888855973287
0.107449999999245,30.2270969034354
0.128966666666432,30.3583353005315
0.150466666667013,4.29361125539634
0.171900000000047,5.30208500023367
0.193399999999189,16.9107175677696
0.214899999999849,39.7017707674115
0.23634999999941,11.1505608430927
0.257849999999991,6.53487512132345
0.279350000000651,18.0708429500264
0.300899999999533,-6.24870248585809
0.322400000000194,-8.05691482937476
0.343899999999415,11.3935818799703
0.365449999999736,23.8183673606413
0.386900000000656,-13.8696345671617
0.408399999999798,-11.243371812626
0.429916666666985,-6.97577575810775
0.451466666665947,-62.867072708635
0.47290000000034,0.0373236104289003
0.494399999999562,20.504031869238
0.515900000000142,-9.90189482864201
0.537399999999364,-7.75868740893319
0.558900000000024,0.261269743654206
0.580400000000685,-8.15010811100116
0.601949999999567,77.4172154067044
0.623450000000148,16.3681488687935
0.644949999999369,22.0392780297736
0.66645000000003,43.6269895690559
0.688016666666877,21.45883774505
0.709533333332626,39.8895266561601
0.730966666667019,8.5713553314745
0.752483333332847,14.7220088283837
0.773900000000634,12.6462180592693
0.795466666666123,-37.5514640360919
0.817016666666444,33.8840086448054
0.838516666667024,2.74385272421644
0.859966666666585,35.1034335067529
0.881466666667246,59.219631228337
0.903016666666128,44.4724405141694
0.924516666666708,45.336792173084
0.946066666667029,72.05639983813
0.967566666666251,38.9883475171376
0.989066666666911,33.6589089012317
1.010533333333,76.6430235533384
1.03198333333392,47.911733467916
1.05346666666661,19.9986028015916
1.07689999999966,77.0395494015338
1.09849999999972,57.1861556034886
1.1199499999992,97.4458272665096
1.14144999999986,15.6385584378923
1.16289999999935,33.0961934167242
1.18440000000001,86.3742854430818
1.20589999999923,40.0021827753066
1.22761666666658,52.9141498799046
1.24911666666724,54.1935770901492
1.27039999999969,48.1561236059302
1.29201666666628,29.8333975037606
1.3135666666666,120.595640658256
1.33501666666608,58.1086727157144
1.3565666666664,20.8971703577184
1.37836666666654,45.9945275349923
1.40043333333312,-42.1143948535575
1.4220333333331,129.764331914332
1.44348333333258,67.8123905785973
1.46503333333298,88.3601063925752
1.48653333333364,71.7733802382997
1.50803333333278,88.9465116305192
1.52953333333344,86.1284638164331
1.55118333333316,176.069867225944
1.57293333333365,196.422419016748
1.59444999999939,88.0952954445157
1.61601666666624,135.801373660708
1.63750000000038,90.7060427079013
1.65905000000062,142.530570816237
1.68054999999976,99.8518695130665
1.7020500000005,116.813970276178
1.72518333333263,79.5892180292115
1.74683333333379,135.896639770421
1.76838333333259,125.330559653381
1.78988333333333,138.316864079733
1.81143333333365,137.306740376644
1.83319999999922,214.311901563611
1.85460000000048,161.286803539557
1.8760999999997,191.136191871565
1.89755000000062,163.582498091115
1.91900000000018,190.636624010621
1.9404833333328,161.478080660731
1.96198333333346,171.777040511979
1.9834833333326,174.881392225113
2.00509999999919,254.17545361386
2.02664999999951,146.766077637075
2.04815000000017,217.822359045668
2.06995000000031,160.387875955675
2.09160000000003,107.834137868302
2.11383333333363,234.184309630381
2.13526666666659,205.255135965568
2.157133333333,223.265361642231
2.17894999999967,189.19577651884
2.20049999999999,216.568408033575
2.22203333333378,226.297648878059
2.24368333333342,339.373740999878
2.26530000000001,304.519904441816
2.28756666666674,241.770653445709
2.30926666666613,253.80684721266
2.33111666666593,286.596910876312
2.35278333333362,315.164148627553
2.37453333333258,248.008879202752
2.39773333333393,258.250907947969
2.41958333333374,248.16394191419
2.44210000000037,421.773641125371
2.46361666666612,326.708446365083
2.48543333333279,287.454845892259
2.50696666666658,308.118226102807
2.52846666666724,330.731193283464
2.55031666666697,240.608908151944
2.57193333333364,355.175875424644
2.59348333333396,332.674771557949
2.61503333333284,350.370193369162
2.63653333333342,336.642248009715
2.65803333333264,369.614133514546
2.6795333333333,404.976172971016
2.70103333333396,360.261135083805
2.7225333333331,369.495657552191
2.74439999999951,330.652677000215
2.76604999999924,418.251546439375
2.7874500000005,433.208635054949
2.80970000000062,397.079378600917
2.83141666666661,394.14531121087
2.85296666666693,428.146085703278
2.87471666666598,299.673121233432
2.89651666666612,372.59648506835
2.91843333333363,458.360120982703
2.94003333333361,455.818608825107
2.96153333333283,428.185933002103
2.98303333333349,450.218759664179
3.00458333333381,435.282620575286
3.02608333333295,457.099247478165
3.04760000000014,451.23837532222
3.06915000000046,469.317929565554
3.09063333333316,465.169031939018
3.11213333333374,483.749305823148
3.13395000000049,482.1621036183
3.15555000000047,421.753736959486
3.17704999999969,494.850386038648
3.19860000000001,486.04037769526
3.22009999999923,504.45835880429
3.24170000000065,552.345468583041
3.26340000000004,515.998501362938
3.28501666666654,560.249019700809
3.30656666666687,582.568596615309
3.32813333333379,507.845660930599
3.3496833333326,553.523284714429
3.37138333333342,556.265574557145
3.39291666666721,569.607456401409
3.41446666666609,627.088276043432
3.43581666666625,583.772268786055
3.45741666666624,610.903348622733
3.47901666666622,593.246161776903
3.50056666666654,575.982922575747
3.5220166666661,610.739447725127
3.54551666666693,677.3746563842
3.56701666666607,638.723464418465
3.58851666666673,687.980132977996
3.61001666666596,621.216869863605
3.6316333333339,628.752114561037
3.65313333333312,711.71823128469
3.67479999999937,716.005662268306
3.69638333333283,675.512187402001
3.71798333333281,737.464167259223
3.73958333333279,707.932642670202
3.76261666666704,702.757003372919
3.78530000000062,702.071382381384
3.80813333333326,762.72464745607
3.83094999999938,733.955927884706
3.85368333333262,768.724463841172
3.87656666666644,774.897846688073
3.89925000000003,755.24307702718
3.9220999999992,750.594981647722
3.94476666666625,799.755221228918
3.96758333333381,761.802086849819
3.99041666666645,833.710108770966
4.01370000000052,775.969332650117
4.03423333333342,778.953610371726
4.05490000000031,791.725712342271
4.07560000000032,860.665136892519
4.09618333333297,829.217787790947
4.11669999999935,820.580858220185
4.13723333333378,835.003282123491
4.15979999999999,846.483443464371
4.18033333333298,899.92572924217
4.2008833333325,887.005009723222
4.22140000000032,884.975097244067
4.24193333333331,879.038547212613
4.26244999999969,901.746091919071
4.28296666666607,930.274051624286
4.3035000000005,952.663895479586
4.32403333333348,963.617324523142
4.34454999999979,949.64250759913
4.36508333333285,934.922422152965
4.3856166666672,940.780626762204
4.40618333333332,952.124259604574
4.42671666666623,955.837854882747
4.44723333333261,967.856705159061
4.46776666666704,993.046741390887
4.48830000000003,1026.34110302886
4.50883333333302,1041.39979836777
4.52936666666592,1022.8491160673
4.55018333333331,1062.08816781031
4.57091666666646,1035.40713868358
4.59150000000046,1063.84442953574
4.61201666666693,1078.9017491055
4.63265000000067,1051.51665457544
4.65313333333392,1088.90047035595
4.6736500000003,1110.77909002391
4.69423333333295,1102.53566411028
4.71526666666702,1071.48965766206
4.73580000000001,1092.5381554365
4.756333333333,1099.92998504138
4.77706666666607,1091.50176036561
4.79766666666676,1149.81640344106
4.8182833333339,1127.91795499652
4.83891666666629,1220.27106447494
4.85953333333343,1200.64653340719
4.88011666666608,1141.745872715
4.90099999999973,1218.62969017456
4.92151666666612,1247.17625543936
4.9421000000002,1226.43551462715
4.96273333333395,1270.90569959676
4.98325000000033,1230.3081384134
5.00378333333332,1245.52811943915
5.02431666666623,1274.07916005365
5.04540000000004,1282.88223057779
5.06598333333261,1268.82112038403
5.08653333333364,1334.98955988048
5.10714999999935,1288.37880813506
5.12773333333343,1331.21460701687
5.14824999999981,1327.0532438645
5.16876666666628,1326.61896835741
5.18935000000036,1345.181363201
5.20998333333259,1359.98198756715
5.23061666666642,1413.01044993344
5.25123333333364,1378.22472344302
5.27181666666629,1396.07954890788
5.29245000000004,1436.11815750506
5.31308333333379,1447.3068893353
5.3337666666672,1414.81714766732
5.35438333333298,1457.69859359542
5.37503333333333,1509.03647172317
5.395666666667,1480.94152754303
5.41649999999955,1437.46630461407
5.43716666666644,1507.57951272098
5.45780000000018,1574.46287659227
5.47836666666623,1548.02462222593
5.49895000000031,1600.93687772882
5.5194833333333,1565.30637398383
5.53999999999968,1623.81010994251
5.56053333333259,1634.58198216753
5.58111666666676,1632.73753720968
5.60163333333314,1670.06279319283
5.62216666666613,1651.82992488743
5.64270000000048,1640.43015311555
5.66323333333346,1658.34270302752
5.68376666666645,1682.84161519629
5.70429999999936,1734.69443641186
5.72480000000065,1731.53274946985
5.74533333333364,1707.50526948219
5.76586666666655,1718.39164951185
5.78638333333301,1732.01906342662
5.80696666666702,1745.9185943405
5.82750000000001,1763.4384712954
5.84801666666639,1824.11890029256
5.86854999999938,1825.25341682054
5.8890833333338,1797.02302350028
5.90960000000019,1807.00172832815
5.93013333333317,1831.49677610457
5.95066666666608,1877.15769700695
5.97120000000051,1883.94853541173
5.99173333333342,1866.5005974905
6.0123499999992,1892.59029790973
6.03286666666702,1946.46566615476
6.05349999999941,1915.80765683639
6.07403333333376,1924.99249177432
6.09470000000064,1912.40728348538
6.11528333333329,2001.09232188516
6.13586666666594,1979.38893127865
6.15645000000002,1960.82875645766
6.17701666666607,2014.25562242296
6.19755000000049,1997.52073442094
6.21808333333348,1999.97757469499
6.23859999999986,2033.98669228083
6.25925000000014,2015.11888295541
6.27978333333313,2041.70714256374
6.30028333333298,2058.83673563428
6.32081666666597,2106.45243505973
6.34135000000032,2139.9597288473
6.3618666666667,2103.69791715368
6.38239999999969,2116.75997966019
6.40293333333259,2127.49707729979
6.42345000000049,2194.69287370438
6.4441333333339,2206.97051040215
6.46466666666689,2174.13377100869
6.48518333333327,2186.32072862633
6.50571666666626,2193.25763338848
6.52624999999925,2227.79058312506
6.5467833333336,2262.82318674009
6.56736666666625,2248.30871976373
6.58788333333407,2279.03521934191
6.60840000000053,2262.03209612565
6.62893333333344,2256.12830724603
6.64946666666642,2264.6694368473
6.66998333333281,2302.55321683091
6.69061666666655,2328.44642961173
6.71114999999954,2300.40448735609
6.73166666666592,2316.31118343901
6.75225000000001,2320.77944577266
6.772783333333,2333.29617364513
6.79329999999938,2361.31909710517
6.81383333333381,2417.51152979459
6.83443333333298,2359.44537984807
6.85494999999936,2441.0727263878
6.87548333333379,2441.994174257
6.89600000000017,2420.80661568218
6.91651666666655,2426.83389216039
6.93704999999954,2433.94943640749
6.95758333333253,2492.00065520316
6.97810000000035,2494.51377085758
6.99863333333326,2466.84082032697
7.01914999999972,2474.98060133321
7.03968333333263,2492.7107857071
7.06036666666612,2539.80563383859
7.08104999999953,2555.72662217162
7.10168333333328,2525.62508559865
7.12221666666626,2533.0962732113
7.14289999999967,2602.16775010778
7.16353333333342,2590.0136295343
7.1841499999992,2577.49464480006
7.20483333333261,2604.64018499603
7.22549999999957,2634.18711771166
7.24635000000001,2659.21540781196
7.26748333333348,2588.87706968141
7.28811666666723,2660.02798365889
7.30874999999954,2655.18204221781
7.32941666666642,2655.65807403255
7.35005000000017,2684.22729031017
7.37073333333358,2618.10216406633
7.39141666666699,2661.2890770136
7.412116666667,2754.55172844048
7.43285000000015,2673.32371858146
7.45353333333364,2726.26892187624
7.47418333333392,2764.73734211146
7.49476666666657,2760.58151800676
7.51540000000031,2767.78472562661
7.53603333333262,2806.84258417208
7.55666666666645,2798.76618591764
7.57733333333333,2809.59427219802
7.597966666667,2834.61312493495
7.61859999999939,2838.03875417527
7.63923333333314,2884.59162939804
7.65991666666655,2855.85789363365
7.68053333333377,2869.47115760633
7.70123333333379,2902.45092459493
7.72181666666643,2946.33279930453
7.74240000000052,2924.35507842956
7.76295000000004,2895.62088578203
7.78353333333261,2981.23347269202
7.8042166666661,2964.06808108025
7.82673333333257,3007.68681687115
7.847266666667,2974.35015157705
7.86784999999973,3027.87142252211
7.88836666666611,2996.17222066309
7.90895000000019,3038.07618508393
7.92953333333284,3083.35848815177
7.95011666666693,3061.84011493493
7.97068333333297,3057.10423959813
7.99123333333393,3113.68167193643
8.0119166666659,3121.13413576302
8.03249999999998,3103.32842898307
8.05299999999984,3111.1293518163
8.07353333333283,3103.02857912752
8.09411666666692,3124.59279781477
8.11468333333296,3185.1894634431
8.13526666666697,3147.97915656256
8.15580000000003,3182.63945626532
8.17708333333393,3212.96989927306
8.19776666666598,3237.50115630503
8.21834999999998,3229.24252197501
8.23888333333297,3259.48314380246
8.25950000000019,3230.03734450808
8.28015000000047,3293.59841296134
8.30073333333312,3268.97936927655
8.32141666666661,3278.85899597028
8.34214999999968,3245.12670193473
8.36301666666672,3262.27833550665
8.38370000000021,3289.18544065293
8.40431666666591,3355.9127161861
8.42494999999966,3315.58412736372
8.44558333333349,3379.64164075822
8.4662166666658,3327.48906091397
8.48715000000047,3368.60947739718
8.50773333333311,3410.272751775
8.52856666666702,3376.60828608716
8.54908333333349,3403.33135365802
8.56971666666579,3382.20701718578
8.59036666666607,3429.5966392349
8.61099999999982,3406.2514972276
8.63161666666704,3450.52693774356
8.65231666666698,3461.19143463292
8.67291666666623,3458.78486662188
8.69354999999998,3516.97984189031
8.71418333333381,3520.07898435238
8.73543333333313,3533.03458409625
8.75600000000069,3523.72315264975
8.77658333333334,3504.3109974034
8.79711666666625,3527.27337285693
8.81768333333381,3553.2709814139
8.83821666666671,3550.25239775768
8.85879999999936,3583.24323747256
8.87933333333379,3596.48628598236
8.8998666666667,3647.25122686517
8.92050000000053,3599.10576898474
8.9410000000003,3620.0021196212
8.96153333333329,3675.82507336274
8.98206666666628,3640.96541308864
9.00258333333258,3653.18431859367
9.02321666666641,3727.70648868496
9.04385000000016,3672.61859096642
9.0644833333339,3746.99973765825
9.08509999999969,3706.39815706783
9.10573333333343,3762.17030089343
9.12636666666718,3724.30963413211
9.14699999999957,3781.4325403497
9.16769999999951,3737.80852817053
9.18831666666673,3745.1472323664
9.20895000000048,3758.58979264805
9.22956666666626,3795.683191665
9.25086666666676,3784.92573953248
9.27138333333314,3796.6832339488
9.29216666666595,3814.60989146385
9.3127999999997,3827.12420002508
9.33348333333311,3872.69868298054
9.3540166666661,3904.34336973123
9.37474999999925,3851.65330446782
9.39536666666639,3878.26597440732
9.41589999999938,3882.75699898245
9.43653333333312,3926.68127339591
9.45718333333348,3907.86891094918
9.47779999999918,3938.11734080827
9.49843333333301,3936.31210914636
9.51905000000015,3947.32154275021
9.5396833333339,3980.52999182555
9.56031666666629,3975.80007028896
9.58104999999936,4025.60106408763
9.60188333333327,3964.19540937942
9.62251666666702,4006.64027388454
9.64303333333348,4082.04916220254
9.66366666666579,4042.9551825317
9.68429999999954,4107.93917025135
9.70496666666642,4033.13166190011
9.72560000000017,4067.23124308152
9.74625000000052,4100.84587023454
9.76688333333283,4080.90009550113
9.78756666666624,4136.81088865024
9.80829999999939,4171.06817735902
9.82906666666703,4181.49003758061
9.84980000000018,4165.88110111995
9.87046666666698,4146.22872476757
9.89109999999937,4166.6571366629
9.91183333333252,4260.8138527396
9.93251666666593,4147.1782886061
9.95305000000036,4196.71101572342
9.97366666666606,4274.35560169378
9.99429999999981,4230.64291555126
10.0149333333336,4258.48806625296
10.0355833333339,4253.87472137702
10.056266666666,4257.95146366604
10.0769499999994,4311.0733479968
10.0975666666666,4282.89628748384
10.1181833333338,4342.16179045845
10.1390166666663,4347.2729715628
10.1597499999994,4345.35127914842
10.1802833333338,4385.97172266614
10.2009166666661,4383.63749804984
10.2214333333339,4356.56306298605
10.2420166666666,4428.79167246004
10.2627,4388.74469629281
10.2833833333335,4446.29294332594
10.3040500000003,4423.46969062674
10.3246999999993,4406.13904636782
10.3454666666669,4436.58057561004
10.366366666667,4474.59236996685
10.3869333333331,4478.40202222707
10.4075166666672,4516.76988873403
10.4280500000002,4532.7174322183
10.4486166666662,4513.90494179794
10.4692000000003,4500.52700059868
10.4896833333336,4515.16982865735
10.5104000000002,4534.95617848505
10.5309333333331,4542.64837498
10.5515166666672,4540.40699596159
10.5721499999996,4579.77997611896
10.5927666666667,4628.88685171111
10.6133166666662,4591.55163550104
10.6339000000003,4635.66701107831
10.6544666666664,4659.47206282789
10.6749833333328,4640.74726305189
10.6955166666673,4663.69539160994
10.7163499999997,4712.86323687518
10.7369333333338,4701.63710153475
10.7575499999995,4703.66634139783
10.7784999999994,4631.49960069323
10.7991666666662,4719.2319933882
10.8198499999997,4710.02614888945
10.8404833333335,4720.76756071074
10.8611666666669,4723.91660068184
10.8818500000004,4731.94967251437
10.9025000000006,4766.69362184202
10.9231166666664,4737.95208348923
10.9437500000002,4807.14504433418
10.964366666666,4766.53896729161
10.9849999999997,4832.55963965357
11.0056833333331,4790.51534747831
11.02635,4749.27930742023
11.0469833333337,4822.25717251199
11.0676166666661,4855.64289270322
11.0882499999999,4857.72046444394
11.108833333334,4868.66800439741
11.1293500000003,4878.88652590952
11.1499833333326,4899.9634319682
11.1706166666664,4895.54544847591
11.1912500000002,4940.93209798741
11.2118833333339,4922.216983253
11.2325166666663,4979.56209585868
11.25315,4941.80571957162
11.2737666666672,5010.95220099759
11.294383333333,4975.12997727438
11.3150166666667,5035.56078063563
11.3356500000005,4985.71613701913
11.3562833333329,5060.26225341571
11.3769166666666,5014.68578226865
11.3974833333326,5034.27176200549
11.418016666667,5035.64135273148
11.4386499999994,5103.34911888241
11.4592833333331,5055.12862143507
11.4799000000003,5108.88738267377
11.5005499999992,5077.75489785618
11.521183333333,5133.33611800121
11.5417166666659,5092.16472484254
11.5623666666663,5101.3141703212
11.583,5149.79548998275
11.6036333333338,5123.97848395667
11.6242666666661,5160.42188242516
11.6448500000002,5146.88547457756
11.665466666666,5176.0028673019
11.6860999999997,5172.83433299536
11.7066333333326,5230.3530358148
11.7272666666664,5190.25966368284
11.7478833333336,5265.10016715928
11.768516666666,5221.56030061542
11.7890666666669,5223.67445509892
11.809633333333,5299.06807265288
11.8302666666667,5310.90618072373
11.8508833333339,5265.93470056557
11.8714166666669,5309.6037802043
11.8920333333326,5290.55955161358
11.9126166666667,5320.19855472996
11.9331499999997,5307.33570138613
11.9538333333331,5358.4316188989
11.9744500000003,5368.00369823721
11.995033333333,5376.65602241097
12.015566666666,5372.71016154297
12.0360833333338,5347.05652462728
12.0567166666661,5398.12410930032
12.0773666666665,5379.24546045927
12.0980000000002,5401.87229934526
12.1186333333325,5402.08532916009
12.1392333333331,5398.42218219702
12.1597666666661,5466.52458982926
12.1803000000005,5473.54196346177
12.2009833333339,5451.48198908463
12.2215000000003,5444.14515953106
12.2420333333333,5451.91129814409
12.262666666667,5508.65554369549
12.2832333333331,5514.46115202073
12.3038666666669,5472.98201938842
12.3244999999992,5505.27852992984
12.3450333333336,5549.14192989597
12.365716666667,5563.14447245142
12.3862999999997,5573.02096522419
12.4069333333335,5533.21288700527
12.4275500000006,5584.75226465962
12.4482333333326,5572.1463378514
12.4688499999998,5585.54094197838
12.4894333333339,5611.53277754546
12.5100666666663,5604.62960705975
12.5306500000004,5617.51848605727
12.5512666666661,5678.47861051881
12.5718500000002,5642.88639559823
12.5923833333332,5702.29989205224
12.6130166666669,5661.16804950239
12.6336833333338,5724.59667955199
12.6542333333333,5688.75342501277
12.6747666666663,5737.00672502977
12.6953833333334,5709.35158076403
12.7158999999998,5720.972192161
12.7365333333336,5775.82209137717
12.757216666667,5746.79005239491
12.7778499999994,5746.07151244288
12.7984666666666,5768.24784388825
12.8191000000003,5759.24229864288
12.8397833333338,5818.31892959112
12.8603166666667,5837.82664799266
12.8809333333339,5796.15355270764
12.9015166666666,5821.95232409679
12.9220999999992,5826.36052268943
12.9427499999995,5826.22414213991
12.963433333333,5874.4065473013
12.9840000000005,5847.76199031562
13.0046166666663,5865.0708930893
13.0252000000004,5864.93370338026
13.0458333333326,5866.80887839947
13.0664000000002,5875.04771809688
13.087033333334,5946.88888278765
13.1076666666663,5907.14059738971
13.1283,5973.15056409359
13.1489166666673,5934.62935022702
13.1694999999998,5925.34590368493
13.1900333333328,5939.34539522965
13.2106666666666,5989.34980040761
13.2311833333329,5954.20928434677
13.2518333333333,6026.55469260685
13.2723666666663,6006.47703522693
13.2929833333334,5984.97019003944
13.3135999999992,6019.80846826281
13.3343333333338,6074.4461672673
13.3551166666666,6025.85163631113
13.3757500000004,6103.12255883668
13.3963833333326,6053.23282932133
13.4170166666664,6108.76852309458
13.4376333333336,6066.09404756559
13.4582666666659,6127.35392171475
13.4789499999994,6041.71219285072
13.4995833333331,6096.6286098058
13.5202666666666,6145.32398212443
13.5409000000003,6116.8901703461
13.561483333333,6130.49631265556
13.5822166666661,6183.52496834715
13.6028333333333,6158.41548661671
13.623466666667,6202.99833433283
13.6440833333328,6159.32426346364
13.6646166666672,6221.4673551664
13.6852999999992,6253.9505030852
13.705933333333,6214.7584713577
13.7268666666663,6241.29630938015
13.7475499999997,6234.27676106714
13.7681833333334,6242.36200251146
13.7888000000006,6297.72543321596
13.809433333333,6258.51395241467
13.8300333333337,6271.49347513906
13.8508666666661,6281.08665907984
13.8714999999999,6309.46142602522
13.8919999999997,6361.99268768813
13.9126333333335,6317.19912672608
13.9332666666672,6369.29883840497
13.9538499999999,6353.6598169519
13.974466666667,6327.59575339205
13.9950499999997,6366.13842077602
14.0156833333335,6345.23911878945
14.0362666666661,6407.14466614622
14.0568833333333,6428.54198895921
14.0774666666659,6422.76279297013
14.0980999999997,6398.35721829932
14.11875,6450.20953710383
14.1393833333338,6417.9838669117
14.1599499999998,6431.4335020722
14.1804666666663,6440.21557799067
14.2011,6497.43705598516
14.2217166666673,6453.41083032587
14.2423499999996,6512.91900637356
14.263033333333,6549.82976290671
14.2836666666667,6492.90530785246
14.3041999999997,6514.38336597703
14.3248166666669,6517.36359225335
14.3453999999996,6546.63171282925
14.3660333333333,6547.13923548329
14.3865499999997,6596.09673768678
14.4072,6573.1261811457
14.4278833333335,6620.27725775116
14.4484666666661,6583.07019049869
14.4690833333333,6636.87616560514
14.4896499999994,6629.47083151972
14.5102833333331,6623.04937782224
14.5308166666661,6658.62629934763
14.5514499999999,6710.24923537183
14.572066666667,6674.3395610395
14.5926999999994,6716.86104971596
14.6133333333331,6692.84060782686
14.6339666666669,6734.54269471535
14.6545999999992,6699.85045468016
14.6752166666664,6726.34791023512
14.6957666666659,6727.5477786708
14.71635,6734.12487784694
14.7369666666672,6764.17115596896
14.7575333333333,6752.16750609913
14.778166666667,6775.14570391618
14.7988499999991,6775.82893970693
14.8195333333339,6838.78151839922
14.8401499999997,6852.380898967
14.8607333333338,6845.09959027355
14.8813666666661,6812.09005003284
14.9019999999999,6875.87444031518
14.9226833333333,6883.24352142793
14.9433000000005,6850.99842171977
14.9638833333331,6878.8103983979
14.9845333333334,6923.06233334875
15.0052166666669,6942.71250149144
15.0257333333333,6894.84794482954
15.046366666667,6941.52643520431
15.0668833333334,6979.75025956685
15.0875166666672,6929.78520135609
15.108133333333,6988.75747824512
15.1288166666664,6971.51354549007
15.1494500000002,6945.0313428693
15.1700833333339,6978.232190913
15.1907666666659,6974.05931709683
15.2114499999994,7023.65520253662
15.2320666666666,7057.25840103348
15.2526499999992,7036.22251574649
15.2732999999995,7023.76437956145
15.2939833333329,7028.40608769862
15.3145500000005,7055.61253513312
15.3351833333328,7097.76718183766
15.3558499999997,7100.69395646029
15.3764833333334,7065.43900776441
15.3970166666664,7130.31134548924
15.4175333333328,7112.58016562092
15.4381666666666,7100.85966210019
15.4588000000003,7112.9675216262
15.4794333333326,7108.09957024932
15.5000499999998,7135.3069086224
15.5206333333339,7155.71728016073
15.5412666666662,7135.08480259393
15.5619499999997,7193.36780282239
15.5826499999997,7206.88312996011
15.6032666666669,7161.56849130055
15.6239000000006,7222.84581799553
15.6444666666668,7197.2905408933
15.6651000000005,7200.54259193851
15.6857166666663,7213.67937400991
15.7063000000004,7206.0972430677
15.7269333333326,7261.33853685203
15.7475666666664,7227.06782410571
15.7682000000002,7274.99512848172
15.7887666666662,7302.1093014706
15.8094000000001,7253.47485371232
15.829933333333,7255.68025727824
15.8506166666665,7270.68540794066
15.8712500000002,7282.71435128487
15.8918833333339,7302.62197107717
15.9125666666659,7350.76359273625
15.9331833333331,7330.82362177909
15.9537499999992,7342.16132603591
15.9743333333333,7390.65353432851
15.9950166666668,7364.6082916629
16.0157000000002,7340.95791059894
16.0362333333332,7364.03323996063
16.0568500000004,7432.99601069876
16.0774833333326,7386.38238729217
16.0981666666661,7445.32733512443
16.1187999999998,7451.90967013619
16.1393166666662,7427.41964946589
16.1598666666673,7421.49996780909
16.1804499999998,7435.90224862707
16.2010833333337,7488.84671983488
16.2217333333339,7462.29175226544
16.2423166666666,7492.07106183704
16.263,7517.80541223335
16.2836333333338,7490.66388085498
16.3042166666664,7532.83448390704
16.3248333333336,7513.15634149456
16.3454666666659,7570.41050959503
16.3660000000003,7548.84448096216
16.3866333333326,7455.69897091761
16.4072499999999,7437.53030583567
16.4278833333336,7413.44156226009
16.4484833333328,7416.0493124387
16.4691166666665,7466.26229327624
16.4896833333326,7474.50301182897
16.5102999999998,7479.18321539113
16.5308333333328,7452.43421169262
16.5513499999992,7458.2069456126
16.571983333333,7526.52396390761
16.5926166666668,7489.25700241117
16.6131999999994,7449.17108048655
16.6338166666665,7516.80470034296
16.6544000000006,7514.39184815431
16.6750333333329,7571.00398719283
16.6957166666664,7569.9357662676
16.7163500000002,7546.00590589862
16.7370500000002,7575.21922658081
16.7575666666666,7584.07413057208
16.7782000000003,7564.59727577225
16.798783333333,7590.67853382555
16.8193833333336,7585.62051021582
16.8399666666662,7592.34556273453
16.8606499999997,7641.83493832753
16.8812833333335,7645.19559748237
16.9019166666672,7602.77412607625
16.9225833333326,7609.51683971416
16.9431666666668,7639.25560312313
16.9638000000005,7641.65495171327
16.9843333333335,7663.46935270318
17.0050000000004,7716.53518936571
17.0256499999992,7661.24251491338
17.046283333333,7681.43210821893
17.0669166666667,7711.56089594908
17.0874999999994,7744.26630678071
17.1081000000001,7720.78453117484
17.1287833333335,7731.72409777039
17.1494166666672,7725.52276479986
17.1700499999995,7758.35928031699
17.1906833333333,7740.97621769839
17.2113000000005,7785.47127680943
17.2319333333328,7762.63587752044
17.2525666666665,7826.07336250933
17.27325,7849.44124984088
17.2938333333326,7797.68691450817
17.3145166666661,7819.22718401509
17.3350500000005,7818.42584767855
17.3556833333328,7853.4679592695
17.3763166666666,7826.32020540062
17.3969666666669,7877.36940639995
17.4175499999996,7857.62116246062
17.438233333333,7910.35365633521
17.4589166666664,7931.01436965018
17.4795500000001,7897.23981270094
17.5001166666663,7942.24858978208
17.52075,7891.00435013831
17.5414333333334,7903.54366680833
17.5621166666669,7950.10516815001
17.5826999999996,7912.66691625347
17.6032166666659,7978.71987017933
17.6238666666663,7951.86633557792
17.6443999999992,7952.36961334444
17.6649666666668,8008.6023413704
17.6855333333328,7973.16362309118
17.7062166666663,8022.45019439904
17.72685,8045.8292628511
17.7474833333338,8000.23162484541
17.7680499999998,8020.41564601815
17.7886833333336,8068.20346080243
17.809366666667,8033.14196391446
17.8300500000005,8028.49398913809
17.850733333334,8045.57399936284
17.8713499999997,8084.2961913602
17.8919333333338,8059.69225126886
17.9125833333326,8099.39904753077
17.9332166666664,8074.22558605014
17.9539999999992,8132.68387025963
17.9746666666661,8069.86860063634
17.9951833333339,8116.40733939972
18.0158166666662,8178.24028241287
18.0363500000007,8123.11973217865
18.056866666667,8138.95984975609
18.0775500000005,8213.89362433213
18.0981333333331,8126.22008343401
18.1188166666666,8209.31181253832
18.1394500000004,8219.13391197168
18.1600666666661,8161.26558200821
18.1806999999998,8228.51139369305
18.2013000000005,8227.33027180407
18.2219833333339,8254.61604412998
18.2425999999997,8203.62174276342
18.2631666666672,8222.14897866914
18.2837999999996,8262.72505889862
18.3044333333333,8248.95228975629
18.3251166666667,8254.08897641433
18.3457833333336,8316.5778808967
18.3664166666659,8319.3720211573
18.3870499999997,8275.40315288078
18.4077333333331,8290.62286028896
18.4283666666669,8313.85141811153
18.4490500000003,8308.20261148034
18.4697166666672,8323.03281944948
18.4903666666661,8369.67047613594
18.5110499999995,8363.03541639123
18.5315833333339,8345.17432842304
18.5521999999997,8346.31009920374
18.5728166666669,8365.58141149635
18.5935000000003,8357.54479972987
18.6141833333338,8401.66665522152
18.6348666666672,8407.12699364235
18.6554999999996,8448.19148140835
18.6761166666668,8391.09599319951
18.6966999999993,8409.69020489426
18.7173833333328,8458.85485365912
18.7380666666662,8426.91672532204
18.7587499999997,8416.9130666596
18.7794499999997,8467.90177131954
18.8000666666669,8455.6608112258
18.8206499999995,8468.99096564394
18.8412666666668,8470.69319480187
18.8618499999994,8531.23918429172
18.8825166666663,8512.36539722188
18.90315,8487.19370251798
18.9237833333323,8519.08508730443
18.9444666666672,8567.76839628984
18.9650000000002,8525.67433820799
18.985616666666,8528.00962324247
19.0062000000001,8549.47830064502
19.0268833333335,8556.7192059037
19.0475166666672,8546.37750661292
19.0681666666661,8578.4208914683
19.0887833333333,8572.33162813215
19.109416666667,8605.19775646956
19.1301000000005,8624.75990702659
19.1507166666663,8590.61644359454
19.17135,8639.13808470083
19.1920166666669,8607.28345605159
19.2126499999992,8625.52687587402
19.233283333333,8623.92331624912
19.2539166666667,8637.04220891052
19.2746000000002,8680.42366856862
19.2951666666663,8632.99208485078
19.3158499999997,8694.71339834856
19.3364833333335,8644.66043776932
19.3571333333338,8680.07209824169
19.3777666666661,8696.96881651518
19.398433333333,8632.503446257
19.4191166666664,8714.61608222286
19.4397333333336,8748.70387700089
19.4602666666666,8740.2539682569
19.4808833333338,8708.2575826587
19.5014166666667,8747.21192354849
19.5220500000005,8734.22499258603
19.5427333333325,8755.31519137054
19.5634166666659,8734.6503851777
19.5840833333328,8757.87620417833
19.6046666666669,8770.55374045721
19.6253500000004,8768.48662364424
19.6458999999998,8805.57997800916
19.6665833333333,8835.03240404343
19.6872000000005,8793.76447986258
19.7078833333339,8847.93259002018
19.7284999999997,8857.17292369473
19.7491333333335,8828.12433121661
19.7697166666661,8831.93726136224
19.7903333333333,8882.50628315064
19.8110166666667,8898.77125498871
19.8315999999994,8895.79116000282
19.8522333333331,8859.41278109691
19.8728500000004,8902.77107600235
19.8934833333326,8874.46136439835
19.9141166666664,8915.51406909524
19.9348166666664,8906.26382792456
19.9554999999998,8944.36837115861
19.9761833333333,8878.37387326391
19.9966999999997,8894.91919375825
20.0172666666657,8935.15038715985
20.0378999999996,8919.67000737593
20.058583333333,8962.8433861848
20.0792499999999,8972.32105778956
20.0998833333336,8935.73527009072
20.120566666667,8951.25374693534
20.1411999999994,8979.751153381
20.1618333333332,8996.40753479002
20.1824666666669,8979.53033585605
20.2031333333338,8976.21896684423
20.2238166666672,9020.06454375318
20.2445166666672,9033.4835056119
20.2651499999995,9011.03521858884
20.2857333333336,9053.10538534299
20.3062333333335,9025.10269514263
20.3269166666669,9046.1864175919
20.3476000000004,9021.32371799398
20.3682833333338,9109.17253021698
20.3889166666661,9100.76926299061
20.4095333333333,9063.08753277807
20.430166666667,9113.45334006746
20.4507999999994,9077.93992176502
20.4714833333329,9127.14066734955
20.4921666666663,9165.04269041092
20.5127833333335,9148.63180314059
20.5333833333326,9156.11369305294
20.5539666666667,9135.50250961371
20.5746000000005,9114.43005742732
20.59515,9171.78534256502
20.6157833333338,9134.37190633335
20.6364166666661,9174.05971320828
20.6570999999996,9114.35492014672
20.6777333333333,9185.51939689859
20.6983500000005,9169.66330959191
20.7189333333332,9203.31785427215
20.7396166666666,9127.21595158441
20.7603,9207.05101954875
20.7809833333335,9243.50395398508
20.8016166666672,9254.24158889267
20.8222499999995,9206.59378282728
20.8428333333336,9212.15900109202
20.8634666666659,9254.16482898984
20.8840333333334,9253.47403037998
20.9047000000003,9222.84528310533
20.9253833333338,9243.42731993362
20.9460166666661,9239.06066184403
20.9666499999998,9314.08038662306
20.9872833333336,9265.76578353162
21.0079500000005,9322.76227962097
21.028633333334,9268.76540147244
21.0492666666663,9287.48636682212
21.0699,9330.83436437232
21.0905333333338,9305.02319382976
21.1111166666664,9319.58274996011
21.1317500000002,9329.82480906612
21.1523333333328,9389.89177871339
21.1729999999997,9367.43867500321
21.1936833333331,9389.49994952632
21.2143000000003,9361.81790803947
21.234883333333,9361.03762766358
21.2555166666667,9369.70395965695
21.2762000000002,9396.87026679567
21.2968833333336,9444.26950530507
21.3174999999994,9393.7329468729
21.3380833333335,9411.16409493781
21.3587166666672,9438.81924890202
21.3793499999996,9420.99940207539
21.3999999999998,9441.26735324114
21.4206666666667,9479.52917644055
21.4413500000002,9433.45241934985
21.4620333333336,9495.35867226182
21.4826499999994,9457.08362820519
21.5032833333331,9517.05709377633
21.5239000000004,9469.52624268144
21.5445833333338,9511.1467185801
21.5651666666664,9520.0142844471
21.5858499999998,9546.60904241134
21.6065333333333,9476.51080795192
21.627166666667,9503.80612074687
21.6477333333331,9563.24558480888
21.6683666666669,9512.26448830844
21.6890666666669,9517.93611898543
21.7097500000004,9559.464492421
21.7303833333326,9533.45836392707
21.7509000000005,9533.69868797097
21.7714666666666,9550.06146374811
21.7921000000004,9587.43183335616
21.8126666666664,9606.19735534588
21.8333000000001,9595.83730980373
21.8539833333336,9578.47249913275
21.8746166666659,9618.4400966842
21.8952999999994,9645.68320013772
21.9159333333331,9619.08935808487
21.9365500000003,9653.021612703
21.9572333333338,9666.90555240318
21.9779333333337,9647.96538006275
21.9985666666661,9637.94601570032
22.0191999999998,9702.07361043393
22.039816666667,9654.40868182525
22.0603333333335,9687.62281749955
22.0809166666661,9679.42633446917
22.1015499999998,9723.31500477071
22.1222166666668,9705.03338986067
22.1428500000005,9691.39665000115
22.1635333333339,9715.89738240017
22.1841666666662,9714.57957379426
22.2048499999997,9699.93682422564
22.2255333333331,9743.46740456949
22.2462,9724.88202274959
22.2669,9779.79904705592
22.2875333333338,9790.78798303144
22.3081666666661,9752.40717220009
22.3287999999998,9823.86594932039
22.3494000000005,9773.23115160508
22.3700833333339,9772.15099004723
22.3907666666659,9805.46866257631
22.4113000000003,9830.0657706267
22.4318666666664,9796.95652919984
22.4524500000005,9808.3920461015
22.473133333334,9855.6812677516
22.4937166666666,9848.28026944806
22.5144,9845.59107133181
22.5349666666661,9895.01305641831
22.5555999999998,9904.6710946859
22.5762000000005,9875.57082427628
22.5967333333335,9902.29762401433
22.6174000000004,9816.4171797778
22.6380166666661,9872.78601918796
22.6586999999996,9907.13024004954
22.6793333333333,9876.58377457614
22.699916666666,9916.38150811857
22.7204333333338,9885.53831876448
22.7411666666669,9945.23767927658
22.7617499999996,9960.26938636462
22.782433333333,9952.83462457988
22.8031166666664,9947.71211984721
22.8237333333336,9942.84945175497
22.8443666666659,9960.78244005861
22.8650166666663,9962.5784448281
22.8856000000004,10003.851035933
22.9062666666658,10008.7592634481
22.926883333333,9981.50920748136
22.9475166666667,9970.36683333053
22.9680999999993,9983.82577424134
22.9887333333332,10052.6661473428
23.0094,10154.3085605574
23.0299833333326,10187.5988906761
23.0506666666661,10202.3111079668
23.0713499999995,10220.2586569499
23.0919833333333,10163.7398097842
23.1126000000005,10206.926566327
23.1331833333331,10179.8130375703
23.1537833333338,10221.7713423031
23.1744666666672,10244.4143838659
23.1951499999992,10197.3442522972
23.2157499999998,10248.7022001134
23.2363833333336,10210.6568145365
23.257016666666,10273.4118168555
23.2776999999994,10247.808673337
23.2983833333328,10285.9814391156
23.3190666666663,10293.894720465
23.3397333333332,10219.1021334595
23.3603166666672,10313.0881647871
23.3809499999996,10251.9199071131
23.4015833333333,10309.569659341
23.4222666666667,10338.2237505542
23.4428499999994,10288.9477983148
23.4635333333328,10312.1858035324
23.4841666666666,10328.7187438636
23.5048000000003,10318.5952646677
23.5253999999995,10375.0157962686
23.5460333333333,10352.0986662689
23.5667166666668,10357.9112908501
23.5874000000002,10371.2817445351
23.6080333333339,10378.2050881233
23.6287166666674,10379.5724034693
23.6493333333331,10353.5513384366
23.6699666666669,10406.2465484295
23.6906500000003,10415.0399338557
23.7113333333338,10420.5418063273
23.7320333333338,10372.8297513152
23.7526666666661,10403.409539799
23.7732833333333,10452.5442125204
23.793916666667,10406.1550128212
23.8145833333339,10482.1104814412
23.8352666666673,10433.5813631855
23.8559499999994,10473.5964880613
23.8765166666669,10492.026579911
23.8970999999995,10454.2959842714
23.9177333333333,10473.7814571331
23.9382666666663,10527.7375680095
23.9589333333331,10470.9150239002
23.9795666666669,10524.8474072747
24.0002500000004,10505.4883072188
24.0208999999992,10521.4926927226
24.0415833333326,10519.4434357073
24.0622166666664,10493.6961861464
24.0828833333333,10557.6463208561
24.1034499999994,10513.8578125349
24.1241333333328,10537.7231023171
24.1448166666663,10589.7631474909
24.16545,10584.86971422
24.1860166666661,10603.6163338778
24.2066499999998,10558.7705627023
24.227383333333,10598.335470857
24.2480666666664,10585.9986433031
24.2687499999999,10525.2202595204
24.2894333333333,10600.126714605
24.3099666666663,10595.602412226
24.3306,10655.6145969319
24.3512333333337,10607.9573760393
24.3718166666664,10543.422617117
24.3923666666659,10640.6073118223
24.41295,10651.5269258181
24.4335833333337,10608.6182219431
24.4542166666661,10674.9467640241
24.4748333333333,10655.3293277012
24.4955166666668,10692.8058935072
24.5162000000002,10730.9792765832
24.5368833333336,10718.0060461492
24.557566666667,10678.8582324245
24.5781999999994,10717.2380687594
24.5987833333335,10736.4645945244
24.6193166666664,10741.5691065737
24.6399999999998,10732.4223355655
24.6606833333333,10704.4836317749
24.6813500000002,10740.6056862757
24.702016666667,10720.7907199762
24.7226499999994,10771.6992924926
24.7432833333331,10760.0943356287
24.7639666666666,10725.210220856
24.78465,10738.7755783925
24.8053333333335,10794.7768571472
24.8260000000004,10820.8611540896
24.8466333333326,10832.2813876007
24.8672666666664,10797.6915783632
24.8879000000002,10790.6013528249
24.9086000000002,10839.5147441802
24.9292833333336,10856.1622602631
24.9498499999997,10845.3855032718
24.9703666666661,10823.2997011193
24.9909999999999,10894.8103010612
25.011616666667,10834.7241949282
25.0323000000005,10875.2119009322
25.052983333334,10842.9387135332
25.0736666666659,10889.5848893217
25.0942999999997,10924.8633500376
25.1149333333334,10913.1816266068
25.1355500000007,10884.0682294513
25.156183333333,10890.767636042
25.176766666667,10924.0707094629
25.197466666667,10927.9357394502
25.2181500000005,10953.9601632258
25.2387666666663,10939.1473230344
25.2593333333337,10975.892959499
25.2798666666667,10950.3781487198
25.3005500000001,10952.1689108756
25.3211166666663,10941.8290426237
25.3417999999997,11006.722902225
25.3624333333334,10961.5286390897
25.3830166666661,10987.1870825997
25.4036499999998,10994.7941087647
25.4243166666667,11020.7846738237
25.4450000000002,11002.5102563485
25.4656833333336,10987.4871923632
25.4863833333336,11037.4971680054
25.5070166666659,11012.7456760847
25.5276499999997,11038.6061318063
25.5481499999995,11080.6836742387
25.568833333333,11040.3203546967
25.5894666666668,11041.7324049297
25.6101500000002,11118.3371175989
25.630766666666,11108.1391269479
25.6513000000003,11121.0933020927
25.6719333333326,11069.0245757441
25.6926166666661,11118.2350589825
25.7132999999995,11137.3477560572
25.7339166666667,11100.2974900886
25.7546000000001,11139.7023755139
25.7752500000005,11106.1014345789
25.7958833333328,11162.4732344355
25.8164666666669,11141.1360370697
25.837033333333,11171.2128271086
25.8576999999998,11178.9339376073
25.8783833333333,11120.7870020371
25.899016666667,11163.8091221807
25.9195999999997,11193.4743350526
25.9402166666669,11154.3610063667
25.9608500000007,11210.8413517795
25.9817333333328,11211.7730296933
26.0024166666663,11179.139958649
26.0230999999997,11220.2677663272
26.0437333333334,11226.3866617492
26.0644333333335,11220.2677663272
26.0850500000007,11190.7906963079
26.105683333333,11264.5772939689
26.126266666667,11199.6715512082
26.1470499999998,11258.0055419009
26.1676166666659,11258.73541074
26.1881333333338,11251.1279207153
26.2087666666661,11226.0753933662
26.2293000000005,11270.8422473786
26.2499833333339,11269.4843317141
26.27055,11276.3812831704
26.2912333333334,11248.5246476303
26.3117666666664,11305.4071184776
26.3324499999998,11325.7072700013
26.3530833333337,11285.5885407151
26.373716666666,11308.5584517129
26.3944500000005,11329.8170328503
26.415133333334,11297.8501048344
26.4357999999994,11349.4530282346
26.4564333333332,11353.4719420517
26.4770500000004,11328.1306640398
26.4976333333329,11332.1364997959
26.5183166666664,11330.5549558848
26.5389999999998,11287.578172963
26.5596833333333,11380.5050141353
26.580316666667,11396.2461678261
26.600983333334,11405.7303960252
26.6216166666663,11359.7167298973
26.6423166666663,11366.6034873333
26.6629999999997,11424.3123969339
26.6836833333331,11415.1215945714
26.7043666666666,11439.3018348687
26.7249666666658,11419.1810551014
26.7455999999995,11410.1041639765
26.7662333333333,11464.0021246036
26.7869166666668,11451.9625106396
26.8076000000002,11424.6332394402
26.8282833333337,11440.9098844513
26.8488999999994,11484.1534798387
26.8695333333331,11449.9222719701
26.8901666666669,11484.1534798387
26.9108500000003,11511.6246098228
26.931433333333,11466.4772892412
26.9520666666667,11454.0033856226
26.9727500000001,11483.9376286929
26.993383333334,11510.6492499835
27.0139999999997,11485.2328423814
27.0345166666661,11492.0369234078
27.0551999999995,11564.2925880772
27.0758333333333,11567.5711261747
27.0965166666667,11554.4668179323
27.1171500000005,11514.0094349727
27.1378333333339,11521.9289509069
27.1584499999997,11580.8112618522
27.1790833333335,11545.8541177246
27.1997666666669,11550.322585155
27.2203666666661,11558.0678874554
27.2410499999995,11555.885184521
27.2615666666659,11557.522143463
27.2821999999997,11622.4566519757
27.3028166666669,11579.1684673424
27.32355,11663.5922373796
27.3442333333335,11643.876814309
27.3649000000003,11598.5797717979
27.3855833333337,11582.2353507727
27.4062166666661,11614.6348074474
27.4268499999999,11657.9373623712
27.447433333334,11675.694554738
27.4680999999994,11629.7360570786
27.4887833333328,11683.255977325
27.5094666666662,11699.2973023115
27.5301166666666,11645.757184446
27.5508,11677.5840914141
27.5714333333337,11726.008548655
27.592033333333,11660.4869951652
27.6127166666664,11734.1889993101
27.6335500000003,11719.5162950687
27.6542333333338,11742.3796892947
27.6748666666661,11751.8172961411
27.6954999999999,11716.3844075258
27.7160166666662,11712.1363848471
27.7366999999997,11775.2453572783
27.7573833333331,11791.0616049366
27.7780666666666,11786.6518075409
27.79875,11781.1155019524
27.8194000000003,11785.9736408589
27.8401333333335,11752.267045679
27.8606499999998,11789.3651773116
27.8813166666667,11756.7662419898
27.9020000000002,11812.8148102216
27.9225833333328,11818.8323591077
27.943366666667,11802.1557679806
27.9640333333339,11785.7476009156
27.9846666666662,11803.0622448689
28.0053499999997,11815.4255197462
28.0260333333331,11774.6811977021
28.0467166666666,11860.310618948
28.0674,11802.9489283904
28.0880166666658,11827.9259449744
28.1086166666664,11869.6910193726
28.1292500000002,11829.1773018682
28.1499833333333,11902.2835649618
28.1706666666667,11815.3119889753
28.1913333333336,11833.9574123516
28.2119499999994,11901.0181509678
28.2325333333335,11864.1984215585
28.2531666666658,11921.178815558
28.2738499999992,11928.4518870112
28.2945333333326,11863.3978027637
28.3152166666661,11895.3842777515
28.335883333333,11867.5163147638
28.3565166666667,11937.8148726886
28.3794500000002,11887.688660573
28.4001500000001,11937.1208585819
28.4208333333336,11957.9733671208
28.4414666666659,11945.685514413
28.4620833333332,11944.1801008248
28.48275,11948.2339266419
28.5034333333335,11930.0692234842
28.5241166666669,11973.423855197
28.5448000000004,11968.7732547584
28.5656333333328,11989.8436317609
28.5862666666666,11957.6252802372
28.6069000000003,11991.7094744044
28.6275666666672,12007.7075700303
28.6482499999993,12061.5938654689
28.668883333333,11982.0361889359
28.6895333333333,12034.771350553
28.710166666667,12008.1752558695
28.7308333333339,12025.7376478836
28.751516666666,12071.9758929166
28.7721333333332,12067.8447044248
28.7928166666666,12082.4926782953
28.8134500000003,12035.0061584306
28.8341333333337,12081.073698546
28.8547499999995,12093.8556070855
28.8753833333333,12052.0522177038
28.8960666666668,12054.7601603605
28.9167000000005,12117.3541484356
28.9373833333339,12118.1864512841
28.958066666666,12139.7442648703
28.978816666667,12066.6648437357
28.9994333333328,12095.7513483467
29.0200666666666,12110.2244631492
29.04075,12090.3025718122
29.0614166666669,12142.9661672848
29.0820500000007,12140.2214836593
29.1027166666661,12131.398564771
29.1233499999998,12157.544203865
29.1440333333333,12199.4271843949
29.1647666666664,12211.2363885241
29.1854000000002,12197.7418936072
29.2061333333333,12175.8725191212
29.226766666667,12163.7676781344
29.2474333333339,12170.8361028906
29.2681333333339,12208.5834869766
29.2887166666666,12177.312207447
29.3094,12191.2455489884
29.3300833333335,12186.6779101771
29.3507500000004,12266.4673781352
29.3713666666661,12262.4547138122
29.3920499999996,12212.4426084974
29.412733333333,12228.3855854386
29.4333666666667,12252.8586228136
29.4539499999994,12295.6024714395
29.4745666666666,12283.0304342649
29.49525,12199.5475789184
29.5159833333332,12311.9945613509
29.5367166666662,12302.4479033357
29.5574666666659,12331.4982956306
29.5780999999997,12334.0786118709
29.5987833333331,12272.6736123431
29.6194000000004,12280.8358564373
29.6400666666672,12342.3178575645
29.6606999999995,12304.1603808061
29.681383333333,12297.6797921057
29.7020666666664,12294.014376944
29.7227000000002,12332.7268907558
29.743366666667,12355.4976069073
29.7639999999994,12315.9151715931
29.7846833333328,12321.3098490104
29.8053166666665,12396.065284549
29.8259500000004,12353.5251145528
29.8465333333329,12365.1220307993
29.8671666666668,12366.4804609674
29.8878500000002,12399.664191452
29.9084833333325,12385.4042874963
29.9291499999994,12326.0952157611
29.9497666666666,12428.7762958345
29.9704000000003,12401.2781372825
29.9910833333337,12420.6766001146
30.0116166666667,12399.0435490333
30.0323499999998,12416.1949250266
30.0529833333336,12450.6331320555
30.0736500000005,12489.6569229872
30.0942833333328,12425.7844713471
30.1149666666662,12441.7566984772
30.1356666666662,12458.6447559193
30.1563,12461.7769625561
30.1769833333335,12451.7591741418
30.1975999999992,12450.3829267928
30.2182666666661,12432.6427614039
30.2388999999998,12468.5476498851
30.2595833333333,12466.1645721187
30.2802666666667,12514.6234474276
30.3008833333339,12538.1639389412
30.3215666666659,12504.3983532755
30.3421999999997,12502.5065694297
30.3628833333331,12565.862633697
30.3835166666669,12551.9986307718
30.4041499999992,12503.8938241051
30.4248333333326,12541.0807520737
30.4454666666664,12555.4300974903
30.4661499999998,12527.6488464712
30.4867833333336,12533.7278033658
30.5074500000005,12541.8418737188
30.5280833333328,12584.3512184732
30.5487,12573.2518003088
30.5694333333332,12584.9896885185
30.5900666666669,12624.3115697147
30.6107500000003,12613.0159722921
30.6313833333326,12617.7628822149
30.6520666666661,12536.262369722
30.6726833333333,12638.3297943437
30.6934166666664,12604.6851353893
30.7140999999998,12642.9662715421
30.7347500000002,12675.9023709734
30.7554333333336,12665.8101894326
30.776066666666,12637.6860989167
30.7967333333328,12697.172733127
30.81735,12652.8942225508
30.8379833333337,12650.0561278112
30.8586666666672,12692.2380769667
30.8792999999995,12677.9744873101
30.8999666666664,12687.4368531684
30.9206000000002,12681.2134832365
30.9412833333337,12713.952405203
30.961916666666,12681.6022705065
30.9826500000005,12732.2117212003
31.0032333333331,12751.4389963588
31.0238666666669,12681.4726721832
31.0445500000004,12744.238501799
31.0652333333338,12769.4092975469
31.0859166666657,12761.5330182314
31.1064333333336,12782.6891493372
31.1271000000005,12786.9022553289
31.1477333333328,12748.0341387353
31.1684166666662,12805.6307081775
31.1890999999997,12809.0656747773
31.2097833333331,12786.3754687133
31.2304166666669,12778.3472229474
31.2510333333326,12789.4050710448
31.2716666666664,12792.4360766622
31.2923499999998,12744.3693491878
31.3130499999998,12755.8941773203
31.3337333333333,12793.095176744
31.354366666667,12857.2123723979
31.3749833333328,12842.1865487198
31.3956,12870.1382235588
31.4162833333335,12896.0667762482
31.4369666666669,12879.8827917962
31.4575499999995,12853.7520459515
31.4781666666668,12863.2057265063
31.4988000000005,12906.6548178334
31.5194333333328,12891.247522315
31.5401166666662,12889.7756801498
31.5607999999997,12897.6739832651
31.5814666666666,12949.9892422903
31.6020166666661,12908.39879651
31.6226499999999,12955.3924945318
31.6432833333336,12943.1065599856
31.663966666667,12929.3628749101
31.6846166666659,12987.6344220086
31.7052999999994,12986.6838590436
31.7259333333331,12952.5552308151
31.7466166666666,12953.3657520692
31.7672500000003,13008.0368808661
31.7879333333337,12944.9952030134
31.8085999999992,13007.2195599937
31.8292833333326,12960.6649645791
31.8499166666664,12956.2033673131
31.8705500000002,13015.2609855989
31.8912000000005,12957.690228431
31.9118833333325,13044.374407491
31.9326000000005,13002.5900023191
31.9532333333328,12958.0957946494
31.9738999999997,13008.0368808661
31.9945333333334,13018.6713523343
32.0151666666673,12983.6972740613
32.0357333333333,13030.8267047876
32.0564166666667,13033.5613545564
32.0770500000005,13034.1084216752
32.0976333333331,13016.3521095893
32.1181999999992,13042.1829786787
32.1388833333326,13073.7555376702
32.1595666666661,13063.3060051914
32.1803166666672,12993.0688608855
32.2009499999995,13037.8023214834
32.2216833333326,13038.3497432833
32.2423166666664,13084.6352683407
32.2629833333333,13074.4435922775
32.2835499999994,13084.3596088282
32.3042333333329,13095.9473182453
32.3248666666666,13056.7148876442
32.3454500000007,13045.7444232686
32.3660666666664,13068.1162171501
32.3867499999998,13088.3578087642
32.407333333334,13111.1527955664
32.4282166666661,13031.646979729
32.4488499999998,13111.5679857534
32.4695499999998,13108.1088721918
32.4901833333336,13105.4811682668
32.5108500000005,13108.8005486368
32.5315333333339,13123.7586324956
32.5521999999993,13100.6434214809
32.5728333333332,13079.1242832275
32.5934666666669,13134.8607806622
32.6141500000003,13113.3674477025
32.6348666666669,13113.9212278692
32.6555500000004,13156.1462422351
32.6762333333338,13165.628717297
32.6968666666661,13141.3920872667
32.7174999999998,13201.3108840141
32.7381333333336,13153.9170671713
32.758816666667,13194.8597006051
32.7795000000005,13191.2161908581
32.8001333333328,13180.0180990341
32.8208166666663,13187.9947762803
32.84145,13230.2792368051
32.8621166666669,13180.2978179081
32.8827833333338,13183.5154446523
32.9034666666672,13202.9948479109
32.9240999999995,13254.8479550449
32.944783333333,13268.5844610283
32.9654166666667,13226.6159577767
32.9861499999997,13235.7780033854
33.0068333333333,13286.186627348
33.0275000000002,13247.213304188
33.0481500000005,13258.5270773361
33.0687833333328,13260.7921811681
33.0894166666666,13239.5875503755
33.1101,13253.0091693081
33.1307500000004,13296.4290103137
33.1514333333338,13252.7263250498
33.1720666666661,13276.8118387899
33.1926999999998,13258.9517245855
33.2132333333328,13343.2927000076
33.2339499999994,13291.7325946728
33.2546333333328,13293.8669112215
33.2751666666672,13342.8625443238
33.2957499999998,13351.0403415137
33.316366666667,13316.9619967516
33.3370500000005,13324.2495737458
33.3576499999997,13313.2498825258
33.3783333333331,13376.6440124061
33.3989666666669,13367.4266595848
33.4195833333326,13336.8433318947
33.4401999999998,13387.7508746226
33.4608833333333,13342.7191653793
33.4815666666667,13341.5722469054
33.5022500000002,13325.822468674
33.5228833333339,13379.2387338864
33.54345,13368.5781189115
33.5640833333338,13344.4399200906
33.5847666666672,13374.1943864656
33.6055000000004,13353.0504875901
33.6261833333338,13376.2116588362
33.6468333333326,13412.6293081144
33.6674499999998,13404.95319208
33.6880833333336,13416.5432470698
33.708766666667,13456.9790521802
33.7294833333336,13390.7832935545
33.750166666667,13423.7974696345
33.7708500000005,13450.9997674504
33.7914666666663,13426.2657383759
33.8121,13445.8998191472
33.8328333333331,13398.4427958996
33.8535166666666,13478.9011609127
33.8741500000004,13462.6717392174
33.8948333333338,13452.1660282126
33.9154499999995,13479.7795746783
33.9360999999998,13457.1249566682
33.9566833333339,13517.6633511001
33.9773166666663,13512.9526565123
33.99795,13503.9822775998
34.0185499999992,13516.0436673119
34.0390833333336,13479.1939523997
34.059766666667,13503.2475456299
34.0804500000005,13539.4945334653
34.1010833333328,13508.6865167162
34.1217499999997,13503.2475456299
34.1423833333335,13536.8354960208
34.1630666666669,13589.0315047928
34.1837500000003,13532.2585739468
34.2044333333338,13531.2255183103
34.2250833333326,13528.7173476754
34.2456999999998,13547.7740110011
34.2663333333336,13543.0415983294
34.287016666667,13585.4594299173
34.307683333334,13612.447051056
34.3283666666659,13618.5757615836
34.3490499999994,13585.7570283591
34.3696666666666,13566.2928636708
34.3903000000003,13584.8642736334
34.4109833333338,13568.3702425253
34.4316666666672,13591.4139717874
34.4522999999995,13623.8121329499
34.4729166666667,13573.1210149456
34.4935500000005,13638.1962973824
34.5142500000005,13605.2792613762
34.5349333333339,13563.6229166745
34.555616666666,13608.5635237393
34.5762499999997,13620.2210268282
34.5968500000003,13628.1540171942
34.6174833333326,13659.5310169695
34.6381666666661,13666.9091698616
34.6588499999995,13617.2299430889
34.6794833333333,13655.3186616404
34.7001666666668,13672.0335977312
34.7208333333337,13718.4867821696
34.741516666667,13716.361204269
34.7621499999994,13674.144823217
34.7827833333331,13694.2355109539
34.8034333333335,13675.3515436735
34.8240500000006,13699.8356339628
34.844683333333,13702.4102711938
34.8653166666668,13710.4435896348
34.8859333333339,13723.3478401913
34.9065666666663,13741.1518851347
34.9271833333334,13743.7428329092
34.9478166666672,13725.0196632358
34.9684999999992,13737.1912423536
34.989133333333,13775.5271845424
35.0097666666667,13742.8282636084
35.0303833333339,13811.1620507679
35.0510166666663,13758.393352341
35.07165,13815.3218463119
35.0923000000004,13758.0877983936
35.1129833333338,13763.8957645522
35.1335999999996,13826.8907278742
35.1542333333333,13786.5655284253
35.1749000000002,13811.4700931037
35.1954833333328,13805.3119998727
35.2163666666664,13810.392008364
35.23725,13858.1516934378
35.258083333334,13826.7363415077
35.2789166666664,13815.6300845341
35.2996999999992,13874.926947239
35.3205333333331,13871.5062763108
35.341366666667,13860.1686617507
35.3621499999998,13834.6146939936
35.3831166666662,13850.8647597048
35.4042999999994,13825.3470280943
35.425183333333,13897.6731852542
35.4460666666666,13852.8794828814
35.4668333333328,13877.4158315104
35.4876666666667,13878.6606287248
35.5085166666672,13908.2943726173
35.5293999999993,13880.6839293718
35.5502333333333,13901.8883580709
35.5711166666669,13906.1062478546
35.5920000000005,13942.3042043744
35.6128833333326,13923.3183995053
35.6336666666669,13927.3933499807
35.6569666666661,13967.0210711342
35.6778166666666,13947.6489874674
35.6987000000002,13971.7546819718
35.7195833333337,13936.0218082154
35.7404166666663,13960.8724917815
35.7612333333336,14026.5979250554
35.7820166666664,14002.7654920572
35.8028500000003,14005.6208053008
35.8236333333331,13989.9319780164
35.844466666667,14005.3034867411
35.8652999999995,14016.2598788185
35.8860833333338,14050.0382247581
35.9069333333328,14040.779639711
35.9277666666667,14044.1303733606
35.9486500000003,14024.8472610365
35.9694999999994,14017.0545335533
35.9903333333333,14008.0011850981
36.0112166666669,14016.100959451
36.0320499999993,14040.9391595564
36.052933333333,13979.4936178522
36.0738,14065.2315061053
36.0947499999998,14065.7118689858
36.1156833333331,14041.2582109137
36.1365666666668,14072.6009480408
36.1573999999992,14084.6341678994
36.1782333333331,14102.323013778
36.1991166666667,14076.1283996945
36.220216666667,14097.3331345975
36.2410499999995,14120.3827377662
36.2619499999997,14079.8182242996
36.2829333333326,14074.8454699834
36.3037666666666,14099.4252013445
36.3245499999994,14125.8750305037
36.3453833333333,14079.6577538719
36.3661999999992,14113.9271131745
36.3870333333331,14137.844802891
36.4078833333336,14139.1401447741
36.4287666666658,14141.7315980376
36.4495999999997,14137.844802891
36.4704333333336,14142.2176097977
36.4912666666661,14143.3517776335
36.5121,14166.0765131552
36.5329833333336,14221.43196911
36.553783333333,14183.1720045186
36.5747166666663,14189.3699672649
36.5956166666664,14221.9239367324
36.6164500000004,14222.7439649715
36.637316666666,14225.2046664394
36.6581499999998,14205.2177523942
36.6790833333331,14261.8966513873
36.7000166666664,14209.4721429507
36.7209,14229.4720755237
36.7417333333339,14223.5640959852
36.762583333333,14231.1141280119
36.7834666666666,14228.6512037717
36.8043000000005,14234.2351633878
36.8251833333326,14295.477712187
36.8460333333331,14290.5041288081
36.866866666667,14285.2031364983
36.8877500000007,14274.6140172839
36.9084833333337,14255.7944896836
36.9294000000005,14262.2266601289
36.9503000000006,14297.9659221628
36.9711833333328,14249.5333222214
36.9922166666669,14330.3990448596
37.0131000000005,14267.1787894227
37.0338833333333,14283.0508344036
37.0547166666672,14295.1460223303
37.0755999999994,14305.1040388658
37.0964333333333,14308.426748055
37.1172166666661,14308.5929278109
37.1380833333332,14328.8985877881
37.158916666667,14333.9014499099
37.1798500000003,14286.5279820435
37.2007333333325,14350.2708388571
37.2215999999996,14322.7336541468
37.2424833333331,14336.4043160091
37.2634833333341,14362.3234763806
37.2845666666664,14288.8471073674
37.3054000000003,14341.9139934521
37.3262833333339,14333.7346262024
37.3472166666672,14356.2943827153
37.368116666666,14339.0750954295
37.3892499999994,14349.1002378304
37.4100833333333,14315.5762911156
37.4309333333338,14393.0575539639
37.4517166666666,14378.2603070989
37.4725500000005,14382.4606688431
37.4933333333333,14387.1682771092
37.5141499999992,14406.2013273488
37.5349833333332,14406.3700087861
37.5558333333336,14434.0927623271
37.5767166666673,14370.8742125584
37.5975999999994,14343.7515839752
37.6184333333333,14388.3457085352
37.6393166666669,14448.5076071182
37.6602500000002,14415.8231157273
37.6810833333326,14418.3575184765
37.7018666666669,14408.2257916333
37.722716666666,14414.9785328925
37.7435499999998,14440.0244415538
37.7644000000003,14459.0420285989
37.7852333333328,14433.5845827793
37.8060999999998,14460.2324649071
37.8269833333335,14480.503086915
37.8479166666667,14462.1035881916
37.8687499999992,14473.8528540296
37.8896333333328,14453.7726980088
37.9104666666667,14480.6736946072
37.9312999999992,14479.1383854843
37.9521999999994,14478.7972545922
37.973083333333,14499.809958635
37.9938666666672,14487.6724425333
38.0146666666665,14521.4053595969
38.0356499999995,14521.4053595969
38.0565333333332,14490.5765591366
38.077366666667,14504.6027814035
38.0981833333329,14495.0206436965
38.1190666666666,14528.1041196839
38.139916666667,14514.8849519148
38.1607499999996,14531.7139867241
38.1816333333332,14584.7154295182
38.2025666666664,14575.7077339646
38.2234000000004,14561.8739074783
38.2442833333339,14597.3818066171
38.2651666666661,14570.5166212272
38.2860666666662,14599.9875261341
38.3069166666668,14577.0927264745
38.3278000000003,14585.9289513941
38.3486333333328,14587.1426983565
38.3695166666665,14561.0102635941
38.3903333333338,14645.4939379175
38.4111666666662,14646.8937814048
38.4320499999999,14645.4939379175
38.4528833333338,14668.2785825823
38.4737166666663,14581.9425100057
38.4945500000002,14602.7681044249
38.5154500000003,14552.3800880757
38.5363333333339,14657.7527338155
38.5572166666661,14604.3326990959
38.5780999999997,14627.8466213199
38.5989500000002,14599.292566136
38.6197333333329,14622.4396497739
38.6405666666669,14632.9088038133
38.6614500000005,14646.8937814048
38.6822166666667,14644.9690738036
38.7031000000004,14658.6292414901
38.7239499999993,14607.6369612988
38.7448833333326,14680.0524911914
38.765816666666,14742.2598748264
38.7866999999995,14671.4396416331
38.8075833333331,14696.4305695872
38.8284666666668,14732.5009043898
38.8494166666666,14733.0328367581
38.8703499999998,14662.8381133745
38.8912000000003,14699.6052605033
38.9120833333339,14728.4241921287
38.9329166666664,14744.9239400574
38.9537500000004,14776.6205927
38.9746166666659,14717.6243264847
38.9955666666657,14755.5910600927
39.0165000000005,14723.1105553475
39.0374333333338,14775.1927240886
39.0583166666659,14727.892634244
39.0792499999992,14757.726572337
39.1002000000005,14784.8368890487
39.1211333333337,14791.9898898829
39.1422166666661,14752.2112570085
39.1630000000004,14791.0953370611
39.1839000000005,14763.9591333029
39.204733333333,14774.8358056127
39.225733333334,14705.9592666698
39.2466166666661,14823.5563161015
39.2675333333328,14772.1595373914
39.2882666666659,14847.3314687431
39.3090999999998,14831.8317940143
39.3299333333338,14831.8317940143
39.3507666666662,14747.5890903149
39.3716000000002,14799.6880964114
39.3924333333326,14792.1688151228
39.4132166666669,14801.479675707
39.4339999999997,14854.9144411218
39.4549999999992,14862.1444983019
39.4758999999993,14853.469387794
39.4991833333335,14840.4782477774
39.5199166666666,14873.1857385545
39.5407500000005,14881.1614931931
39.5615666666664,14894.7789770614
39.5824166666669,14853.2887785634
39.6032499999994,14872.6422909367
39.624133333333,14880.4360227559
39.6449666666669,14906.9679407756
39.6659000000002,14849.4971357708
39.6867833333338,14901.3254486402
39.707666666666,14858.8899839759
39.7284500000002,14927.9423719246
39.7493500000003,14860.1554361065
39.7701999999994,14876.0848883329
39.791083333333,14869.9257296288
39.8119166666669,14879.1666429912
39.8328000000005,14937.0827010124
39.8536666666661,14939.2782810704
39.8745499999997,14937.631526968
39.8953833333336,14914.2557723971
39.9162166666661,14933.9735564236
39.93705,14955.4017503397
39.9578333333328,14978.3729161303
39.978733333333,14930.8658883886
39.9996166666665,14954.4845788613
40.0205000000002,15002.1640134701
40.0413499999992,15009.9286550224
40.0622333333328,14956.5025258279
40.0831166666664,15018.443370907
40.1039500000003,14994.0394968699
40.1247333333331,15013.9995281716
40.1455500000005,15040.3362666814
40.1664500000007,14973.7722274017
40.1873333333328,14978.0047419756
40.2082166666664,15039.0354899131
40.2291,14981.1348827722
40.2499833333336,14968.2556671892
40.2708666666657,15064.5406598883
40.2916999999997,15044.2401491304
40.3125833333333,15025.4856328948
40.3335,14987.9527222754
40.3543833333337,15099.703054703
40.3752166666661,15072.9400064255
40.3960999999997,15029.1951329157
40.4170833333326,15125.4462525472
40.4379499999997,15007.3394173335
40.4587833333336,15056.897296861
40.4796333333326,15069.3923005449
40.5007166666664,15105.1439012902
40.5218666666664,15093.8919755456
40.5427999999997,15122.4345192819
40.5636833333333,15042.0090739855
40.5845166666672,15081.7241830197
40.6053999999994,15055.220679767
40.6262999999995,15069.9523367758
40.6471333333334,15076.8633940769
40.6679166666662,15080.6021419784
40.6887999999998,15081.9112085663
40.7096500000003,15067.1526347964
40.7304666666663,15076.4896367467
40.7513499999998,15119.2360707566
40.7722333333335,15092.0185341699
40.793116666667,15045.1699883272
40.8139499999995,15120.7410282648
40.8348333333331,15152.2363016074
40.8557166666668,15126.5760099816
40.8766166666669,15159.9919062212
40.8974499999994,15176.2896825852
40.9184000000007,15134.1127149167
40.9392833333328,15160.5597505444
40.9602666666672,15156.207536144
40.9810999999997,15209.3889200319
41.0019833333333,15166.8092924583
41.0228666666669,15156.018375078
41.0437500000005,15228.678772074
41.0646333333326,15197.3853693672
41.0854666666666,15178.7568354508
41.1063000000005,15200.6222541854
41.127133333333,15197.5757300409
41.1480166666666,15196.6239820446
41.1690166666661,15214.9217733073
41.1898000000004,15266.2755716913
41.2107000000005,15185.5938096076
41.2314833333333,15193.19883497
41.2523666666669,15232.3139194051
41.2731999999994,15207.8634385816
41.2940333333333,15229.8264951913
41.3147999999995,15248.0256555079
41.3356333333334,15263.582910609
41.356466666666,15301.7681941924
41.3772999999998,15296.1614529231
41.3981833333335,15252.2474255489
41.4189666666663,15305.6377131607
41.4398666666664,15268.7768923344
41.4608499999994,15269.1617957718
41.4817833333326,15324.4374092891
41.5025333333338,15334.53787891
41.523416666666,15310.8651960219
41.54445,15325.2138152267
41.5653000000005,15347.5749727881
41.5861833333326,15359.4671970479
41.607,15309.7031722228
41.6279333333333,15316.0968582074
41.6488166666669,15313.1898628523
41.6697000000005,15276.4792659825
41.6905833333326,15374.7052019111
41.7113166666658,15359.2720682042
41.7321999999994,15338.4268299867
41.7530999999996,15407.6465377853
41.7739333333335,15390.7629952695
41.7948333333336,15376.6613610003
41.8156666666661,15343.0966241273
41.8365499999997,15362.9805115766
41.8573833333336,15350.497287023
41.8783166666669,15417.6794860782
41.8991333333328,15357.126034862
41.9200333333329,15354.2007595135
41.9408666666669,15354.7857099767
41.9617500000005,15429.6999168777
41.982583333333,15430.8834479601
42.003316666666,15408.2362855892
42.0241999999997,15404.5021135008
42.0450833333333,15427.5306656953
42.0659166666672,15412.1692964881
42.086816666666,15454.5991333785
42.1076499999998,15474.6266660794
42.1285500000001,15431.475293783
42.1494333333336,15431.0807239534
42.1703166666658,15472.0454252171
42.1911333333332,15471.6484015951
42.2120166666668,15448.266541879
42.2329000000003,15402.5376153364
42.2537333333329,15450.0469639173
42.2746166666665,15501.8910589449
42.2954666666669,15522.8642931301
42.3163500000004,15500.0964770786
42.3372833333337,15503.0877203326
42.3581666666659,15453.4113055777
42.3790166666664,15531.8734408151
42.3999,15534.2779764713
42.4207333333339,15495.7117921947
42.4417833333331,15440.3594106428
42.4626166666669,15503.2871851745
42.4833333333336,15531.272444932
42.5041666666661,15499.6977479351
42.5249500000003,15554.9533280679
42.5457333333332,15633.4290294961
42.5665166666659,15582.3532786232
42.5873499999997,15583.9686188774
42.608083333333,15561.7925673688
42.628816666666,15635.0570288419
42.64965,15636.4818605926
42.6703999999997,15620.8257486945
42.6912333333337,15633.6325072659
42.7119666666667,15601.5612399181
42.7328500000004,15609.0575177617
42.7536166666665,15596.2987179286
42.7743499999998,15638.7215089196
42.7951333333339,15664.4304896487
42.8160166666661,15637.7033919265
42.8368666666666,15640.5545187832
42.8576333333329,15675.2748364183
42.878416666667,15639.1288000744
42.8991999999999,15671.1805185393
42.9199833333326,15652.9918044146
42.940766666667,15670.1573392179
42.9615666666663,15712.239434965
42.9822999999994,15699.0725309867
43.0030333333339,15667.906907697
43.0240166666669,15666.4752177647
43.0449833333334,15670.5665917486
43.0660333333339,15748.5856270353
43.0869666666658,15647.2799512735
43.1077500000001,15696.6066832565
43.1286833333332,15732.8659085809
43.1496166666666,15691.2671986911
43.1703499999996,15730.5938113152
43.1911833333336,15720.2760277507
43.2120833333337,15752.7286790821
43.2328666666666,15700.5113713862
43.253716666667,15722.7508125277
43.2745999999993,15789.7178634371
43.2954833333329,15723.3696549904
43.3164166666661,15712.4453782006
43.33725,15797.6415865004
43.3581166666671,15763.7204698557
43.3790166666672,15756.0450103869
43.3999500000005,15734.1055669585
43.420783333333,15747.9643954085
43.4416666666665,15780.5549969427
43.4625500000002,15795.3468903103
43.4834833333335,15756.2523369085
43.5043166666659,15782.8445110074
43.5252166666661,15822.9364968
43.5461666666659,15826.4981738284
43.5670499999995,15785.5513335223
43.5879333333332,15805.5749159174
43.6088166666667,15844.1255596689
43.6297000000003,15796.8070584156
43.6505833333325,15830.2714754469
43.6714166666664,15820.214168861
43.6923,15865.1726439629
43.7132333333333,15827.3364972881
43.7341666666667,15857.3773307065
43.7550999999998,15875.2993403823
43.7759333333338,15881.8478372062
43.7968333333339,15820.214168861
43.8177166666661,15774.1070364892
43.838716666667,15785.967867153
43.8596000000006,15896.2352766185
43.8804833333328,15833.8371481387
43.9013666666665,15820.4235384985
43.9223166666662,15905.1374650201
43.9431833333333,15835.7256440883
43.9641166666666,15854.0092584007
43.9848499999996,15900.0490173791
44.0057333333333,15859.9045230667
44.0265666666673,15889.4607762796
44.0474499999993,15925.3181564672
44.068333333333,15945.561277089
44.0892333333331,15906.1980564966
44.1102166666661,15921.9149419135
44.1311166666663,15960.731341738
44.1519999999998,15956.0269969369
44.1728333333338,15900.8968172555
44.1937833333336,15967.5800680139
44.2147166666669,15927.8717293928
44.2356833333332,15886.9221457021
44.2565166666658,15927.6588935847
44.2773999999994,16007.0999562076
44.2982833333329,15949.830977969
44.3192333333328,16029.7594907747
44.3400666666667,16017.2330961934
44.3609500000003,15978.5100625365
44.3818333333325,15984.9480094729
44.4027166666662,15990.3178078545
44.4235666666666,16017.0173340113
44.4444500000003,16048.3773591231
44.4653333333338,16007.3153916333
44.486233333334,15974.4359697238
44.5071166666661,16049.8951008292
44.5279833333331,16020.0386521414
44.5489166666664,16069.875348902
44.5698000000001,16067.0483490948
44.5906833333336,16010.3322325571
44.6115833333338,16077.4925782241
44.6327166666672,16063.7879431198
44.6535999999994,16021.118032488
44.6744333333332,16023.7092719635
44.6953166666669,16034.9498486407
44.7162333333336,16090.789551221
44.7371166666672,16099.3050762095
44.7579499999996,16045.9930474419
44.7788833333329,16083.3747909314
44.7997999999997,16072.7035705453
44.8206333333336,16058.3575405438
44.8415166666673,16070.0928610208
44.8624166666659,16093.1902441858
44.88345,16074.2269655788
44.9043333333337,16092.7536890413
44.925266666667,16054.8844464072
44.9461500000005,16136.5540087728
44.9670499999993,16110.8952473962
44.9879833333324,16134.1373571295
45.0087833333334,16122.067468116
45.0296166666672,16130.1847603631
45.0504999999994,16127.1121681845
45.0713833333329,16198.8148658172
45.0922999999998,16150.8524703615
45.1131999999999,16175.7844086436
45.1340333333339,16228.8315797514
45.1548666666662,16210.3605614529
45.1757000000002,16177.5531074412
45.1965333333326,16180.6494811331
45.2173666666666,16194.601322559
45.2382999999998,16223.4852019195
45.2591833333334,16209.2495127828
45.2804333333329,16198.8148658172
45.3012833333333,16197.7057755726
45.322166666667,16180.6494811331
45.3430500000005,16240.6536611575
45.3640000000004,16184.6326871016
45.384866666666,16267.7240067331
45.4057499999995,16212.3609245624
45.4265833333335,16253.839262069
45.447466666667,16262.7937889175
45.4684000000003,16251.826181093
45.4892833333339,16300.7625021689
45.5101833333326,16273.5554208409
45.5310166666666,16279.1674547148
45.5518499999991,16281.1889657073
45.5727833333337,16252.0498261771
45.5937333333336,16318.1351824615
45.6146166666658,16330.7988912501
45.6354499999997,16297.6087822996
45.6563333333333,16311.8125064658
45.6770000000001,16280.0658269481
45.6978833333338,16353.2466545729
45.7188333333337,16296.9331828837
45.7397666666668,16316.1022274398
45.7606500000005,16337.1399477568
45.781483333333,16319.0389207962
45.8023666666665,16361.8834606195
45.8232500000002,16320.3947623654
45.8442000000001,16363.4756953062
45.8654833333339,16333.7421890552
45.8862833333332,16375.999609821
45.9071166666658,16389.2326645564
45.9279,16344.3944015319
45.9489500000006,16353.2466545729
45.9698666666659,16379.6474356205
45.9906999999999,16356.6545584794
46.0116333333332,16366.2061421638
46.0325166666667,16365.5234236318
46.053416666667,16413.2573440832
46.0742499999993,16408.4453466653
46.095133333333,16374.1764591965
46.1160666666663,16381.700231609
46.1369499999998,16397.4597648968
46.1577833333338,16420.1377702076
46.1786833333324,16439.2113977637
46.1996333333338,16427.4848741257
46.2203666666669,16428.863374939
46.2412500000005,16435.0702247514
46.2621166666661,16405.0103708188
46.2829999999998,16387.6341510569
46.3038833333333,16460.1875378743
46.3247666666669,16428.4038424011
46.3455999999993,16416.6966528415
46.366483333333,16432.540797444
46.3873833333332,16461.8038756215
46.408216666667,16507.2241902073
46.4291500000004,16464.5756695225
46.4500833333337,16481.9260323374
46.4709833333338,16469.4291357618
46.4918166666663,16479.6099909256
46.5127166666664,16527.0202079244
46.5336000000001,16533.087440609
46.5544666666669,16513.9713973174
46.5752999999995,16474.9803658172
46.5962333333328,16511.178605724
46.6171666666661,16492.358374729
46.6380499999998,16524.6881539665
46.6589000000002,16512.8075892974
46.6798333333335,16545.9405377367
46.7007666666668,16514.2041837615
46.7217,16546.6423423672
46.7425499999991,16501.6455510488
46.7634333333326,16525.6208758206
46.7843333333329,16568.6704348505
46.805266666666,16548.5141894388
46.8261,16541.2637627116
46.8469666666671,16581.5936830412
46.8678499999993,16596.4281051192
46.8887333333328,16520.0265378573
46.9095666666667,16575.2463537696
46.9304500000004,16611.5325073078
46.9513500000005,16609.8787641954
46.9722333333325,16579.947487875
46.9931166666662,16618.3881845578
47.0139999999998,16580.8881201168
47.0348999999999,16582.7697903318
47.0557833333336,16623.8305576044
47.0766666666672,16586.2993810267
47.0975666666659,16589.8308765539
47.1184999999992,16654.9150282431
47.1393666666663,16593.8355434796
47.1602499999999,16648.4962135348
47.1811333333334,16616.2597918454
47.2020833333333,16622.8837327394
47.222966666667,16686.6258575936
47.2439000000001,16690.9293791246
47.2647833333338,16611.5325073078
47.2857166666671,16715.3696060095
47.3065999999993,16692.8429642058
47.3274499999997,16656.8181090582
47.3483499999998,16659.911796301
47.3692833333331,16695.9537339562
47.3901666666668,16640.422207813
47.4110000000006,16679.9371112213
47.4318666666662,16713.9294159949
47.4527499999999,16743.7579488311
47.4736333333335,16706.0140317075
47.494483333334,16748.3404867842
47.5153666666662,16721.6140947294
47.5362999999993,16712.0096555685
47.5572333333326,16676.3566646512
47.5780666666666,16741.3473751146
47.5989500000003,16762.3491701515
47.6198500000004,16737.4923032632
47.6408000000001,16725.7002538999
47.6616333333327,16740.3833942141
47.6825166666663,16790.6996605311
47.7033999999998,16803.5827239535
47.7243166666665,16821.6129325867
47.7451500000005,16793.1284866805
47.7661000000004,16768.3966571692
47.7869833333339,16829.4251923853
47.8078666666661,16811.6170856774
47.8286999999999,16860.7678337708
47.8495833333336,16774.4497382222
47.8704666666672,16790.9425025825
47.8913499999995,16862.9772723703
47.9121999999999,16835.5350164894
47.9331,16797.0164846183
47.9539833333336,16816.491201084
47.974916666667,16837.9805443363
47.9958000000004,16796.044268543
48.0167166666671,16846.7920197697
48.0376666666671,16792.1568480379
48.0585499999993,16787.5435336821
48.0793833333331,16866.9070061289
48.1003166666664,16791.4282137229
48.1212499999997,16826.7386759648
48.1421333333334,16751.9605481002
48.1629666666658,16832.845991041
48.1840166666664,16869.3642886725
48.2049166666665,16814.5411192408
48.2258499999999,16905.3460954793
48.2467333333335,16849.4867833629
48.2677833333326,16853.6536019969
48.2887166666659,16847.2818942524
48.3095333333333,16871.3307793034
48.3304166666669,16867.3983888232
48.3513000000006,16929.1136430909
48.372133333333,16910.2905540141
48.3930833333329,16846.0572768002
48.4139166666667,16896.9490806856
48.4348000000004,16949.4836752411
48.4556833333326,16916.971504854
48.4766166666672,16939.0423228192
48.4975666666671,16914.7437632619
48.5184499999993,16971.4149679492
48.5392999999997,16969.1686175875
48.56085,16979.1583047983
48.5817833333334,16930.6019850237
48.6025499999995,16930.6019850237
48.6234833333328,16959.1941574038
48.6443666666664,16971.9142616574
48.6652000000003,16927.625639597
48.6860333333328,16960.938590773
48.7069166666665,16953.9636457515
48.7278166666666,16989.1632655985
48.7487499999999,16933.3314914131
48.7696833333332,16969.9173153634
48.7905333333336,16962.683489298
48.8112666666667,16964.927614152
48.8321500000003,17037.6533403904
48.853033333334,16986.9108153428
48.8739833333338,17043.7083911396
48.8949000000005,16995.4241429935
48.915733333333,16993.1695369942
48.9365666666668,17007.4618453939
48.9574500000005,16981.6581112758
48.9784333333335,16960.4401337849
48.9993333333336,16974.9108241994
49.0203166666665,17003.6976840703
49.0412000000002,17003.4468169524
49.0620833333338,17020.0247108264
49.0829333333328,17014.4940784032
49.1038666666661,17067.7314349098
49.1247666666662,17023.0433907722
49.1456499999999,17082.441611777
49.1665333333335,17030.5961886289
49.1874000000006,17071.2791407905
49.2083833333334,17039.1665778911
49.229266666667,17105.5882218682
49.2501666666673,17100.4940303871
49.2709999999997,17088.029995852
49.291933333333,17068.7448689116
49.3128166666666,17112.4716770695
49.3337499999998,17078.1265813954
49.3545833333338,17078.6340843689
49.3754333333328,17097.6939145486
49.3963166666664,17154.9520340643
49.4170499999995,17108.3917185013
49.4377333333329,17148.2802430958
49.4586166666666,17103.0406304101
49.4795000000002,17074.5751622234
49.5004333333335,17118.5963885406
49.5212666666659,17128.3055874165
49.5421999999992,17082.6955257261
49.5630833333329,17146.2287521042
49.584016666666,17090.0633193629
49.6049666666659,17108.3917185013
49.6258999999993,17179.3877306644
49.6469333333333,17142.1276985668
49.6678333333334,17127.2828878228
49.688666666666,17120.6392335854
49.7095666666661,17180.4186066993
49.7305500000005,17176.2960766033
49.7514833333338,17100.4940303871
49.7723499999994,17187.3812709524
49.793233333333,17139.5658446654
49.8141833333328,17191.5107927975
49.8351166666661,17140.8466462464
49.8559999999998,17185.0595596148
49.8768833333333,17172.6909920358
49.8978166666666,17193.8347945594
49.9187000000002,17197.7099659176
49.9396999999996,17198.4852756481
49.9605500000002,17209.608154637
49.9815333333332,17223.6032544376
50.0024166666667,17246.4744117904
50.0233000000003,17199.0021998396
50.0439833333337,17229.0538868083
50.0649166666671,17216.08364682
50.0858500000004,17192.801802989
50.1067833333337,17308.2082973545
50.1276666666672,17247.2555211123
50.1485499999994,17311.8888408894
50.1693833333334,17290.0986581927
50.1902666666669,17285.906470126
50.2112666666664,17240.2288915486
50.2321999999997,17310.3112115966
50.2531499999995,17198.7437326396
50.2740333333332,17328.7405954763
50.294866666667,17290.0986581927
50.3156000000002,17324.5235865747
50.3364833333337,17286.692300842
50.3573666666659,17224.6411201554
50.3782499999996,17348.2796894796
50.3991833333329,17304.7925024055
50.4200666666664,17352.5120403987
50.4411666666667,17286.692300842
50.4619999999993,17295.6049839265
50.482933333334,17294.0312751523
50.5037166666667,17332.9603237132
50.5245499999993,17283.5495440363
50.5455000000005,17309.7854196766
50.5664333333338,17355.6881009706
50.5874333333334,17368.6730374399
50.6083666666665,17265.2468176934
50.6292500000002,17355.9528422809
50.650316666666,17352.7766532431
50.6712666666658,17307.4198787102
50.6922000000005,17374.245907581
50.7131333333324,17322.1527127729
50.7340166666659,17389.66234566
50.7547500000006,17317.6767379179
50.7756333333326,17309.7854196766
50.7965166666663,17396.3185799198
50.8174166666664,17326.6317513277
50.8383666666663,17433.9870507304
50.85945,17351.7182660609
50.8803333333337,17439.6158470333
50.901166666666,17443.6393822402
50.9220666666663,17404.0483035029
50.9432333333329,17349.3375206065
50.9641166666664,17399.7824993514
50.9851666666671,17410.4522283362
51.0064999999993,17468.64067101
51.0277000000004,17424.3489358992
51.0486333333337,17444.4443862398
51.0695166666672,17420.6046105135
51.090416666666,17414.4578662033
51.1114500000001,17453.0372631268
51.1323999999998,17416.060808157
51.1532833333335,17488.8728112226
51.1743333333325,17416.3280033281
51.1953666666668,17421.1393829844
51.2160999999998,17469.4487567134
51.2369166666672,17451.6938820918
51.2579000000002,17460.5652977064
51.2787333333326,17448.2023815318
51.2994166666662,17442.0296712724
51.3204666666667,17504.8328388469
51.3414499999996,17524.3623671348
51.362233333334,17447.3969151236
51.3830166666667,17520.0174321955
51.40395,17507.5417904242
51.425066666667,17464.3325651314
51.4457833333334,17442.0296712724
51.4666833333337,17501.854286804
51.4877166666663,17440.6885478818
51.5085500000001,17453.5746927704
51.5294166666672,17455.9936725293
51.5504000000002,17443.9077059035
51.571183333333,17503.2080060286
51.5922833333334,17532.2449225236
51.6130166666664,17538.7756050383
51.6341000000002,17564.6903737587
51.6550333333335,17496.9832150742
51.6757666666666,17514.3190797354
51.6967833333326,17533.8769822244
51.7178166666668,17476.9957059569
51.7387999999996,17523.5474720502
51.759583333334,17493.4674724907
51.7806833333329,17477.8048241448
51.80175,17506.7289871933
51.8224833333332,17520.2889061251
51.8438833333329,17483.2015036281
51.8646666666673,17563.8704414194
51.8855499999993,17566.6039488473
51.9068999999996,17535.509449075
51.9279333333336,17529.525727248
51.9489833333329,17587.9645863648
51.9700166666669,17553.7663808431
51.9910166666664,17579.1928111417
52.0117999999993,17573.4427172483
52.0329500000007,17589.610604066
52.0536333333327,17617.3808962532
52.074566666666,17540.681615802
52.0958999999996,17582.2067827935
52.1167333333334,17581.3846528425
52.1378166666672,17642.5029826545
52.1590166666668,17665.5009398448
52.1800999999993,17624.8246446107
52.2010833333337,17644.9928336592
52.2219833333338,17609.3951794896
52.2428166666663,17658.2880627896
52.2637999999991,17637.2497395966
52.2848000000002,17635.3153968382
52.3058499999994,17663.8357239557
52.3269833333328,17663.0032748924
52.3479666666672,17626.479961455
52.368916666667,17636.4206655406
52.3898833333335,17681.8981732386
52.4111833333339,17627.8597120951
52.432366666667,17628.6877021428
52.4534166666662,17680.2287799722
52.4743499999995,17675.7791455727
52.4951833333335,17622.6182066444
52.5165333333336,17678.2816926119
52.5377666666665,17674.667209574
52.5588666666668,17743.1243388497
52.5798666666662,17732.7398926973
52.6009000000003,17712.8590165866
52.6218999999999,17701.1268688125
52.6427833333335,17736.6672048018
52.6638166666661,17703.9183300512
52.6848500000002,17698.8945568769
52.7058833333328,17761.407284693
52.7267666666665,17739.7546044046
52.7478000000006,17711.7407624998
52.7689500000006,17742.8434613591
52.790083333334,17815.4285098387
52.8109833333326,17752.4000660147
52.8319166666659,17769.0167809997
52.85295,17767.6069472472
52.8739999999992,17796.9942194983
52.8948999999993,17814.0086423355
52.9159833333332,17790.2008180715
52.936966666666,17823.3854662812
52.9577833333334,17827.9366463553
52.978783333333,17792.1814984039
52.9998666666667,17766.4792989011
53.0210166666667,17808.3322511601
53.0420499999994,17861.5997127337
53.0630833333334,17811.7374949507
53.0841833333338,17843.8907500764
53.1050166666663,17876.7761071017
53.1259499999996,17821.1110627003
53.1468333333331,17799.5435643795
53.1679500000001,17765.0700116782
53.188933333333,17821.3953199206
53.2097666666669,17846.7437948271
53.2307000000002,17831.9215271532
53.2517499999994,17871.0450300699
53.2727166666672,17835.0542081706
53.2936500000005,17912.7095080499
53.3145333333326,17874.7696591411
53.3355333333336,17839.8985760502
53.3564166666672,17857.3108894727
53.3774499999999,17877.6362017385
53.3983333333335,17857.5967235888
53.4194333333339,17868.1813727065
53.4403166666659,17892.8498772176
53.4612666666673,17858.16842928
53.4821499999993,17927.1383005791
53.5031833333334,17902.3404420959
53.524183333333,17865.0327963624
53.5451166666663,17928.0050406854
53.5659333333337,17913.2860493134
53.5869666666663,17915.0159779461
53.6078666666664,17882.2252833811
53.6287999999997,17906.6588896469
53.6497833333341,17902.0526468969
53.670883333333,17946.5228976461
53.6917666666667,17910.4038508275
53.7126999999998,17883.9470190523
53.7335333333338,17894.8618774687
53.7544833333336,17984.5908326631
53.7753166666661,17901.1893372358
53.7961999999998,17937.8361270401
53.8171499999995,17950.290749079
53.8382333333332,17951.4505245859
53.8591000000003,17925.9828256568
53.8799833333339,17930.8950037835
53.9009333333339,18001.2241386906
53.9219666666665,17939.5725588763
53.9429499999995,17950.0008373169
53.9639333333337,17973.2344613569
53.9848833333336,18049.6128975377
54.0059666666659,18022.0021251958
54.0268499999996,17977.0177290514
54.0477999999993,18059.9233422746
54.0687499999992,17980.511918608
54.0898833333326,18007.9478140009
54.1107666666663,18061.9873820959
54.131716666666,18043.1403516721
54.1526333333327,18004.1466269427
54.1735666666661,18022.588377063
54.1944499999997,18067.8882286445
54.215383333333,18036.0866864898
54.2364333333337,18074.9762755567
54.257516666666,18082.3678309982
54.2783999999995,18019.3646415609
54.2993499999994,18023.1746814569
54.3202999999992,18018.1927677511
54.3414333333325,18012.629231298
54.3622666666665,18054.6187988605
54.3831500000002,18052.2626035568
54.4041999999994,18127.1912158471
54.4252666666665,18049.0242196553
54.4461500000002,18057.270533066
54.4671999999994,18063.1671257935
54.4880833333329,18086.8067752068
54.509116666667,18075.5672928382
54.5299999999992,18112.6122013144
54.5509500000006,18077.340665027
54.5719333333335,18089.4715878057
54.5929833333326,18074.0898497088
54.6138666666663,18077.0450696193
54.6347666666664,18072.0219895758
54.65565,18144.7887494979
54.6767833333334,18149.8680199728
54.6976666666671,18119.1538637579
54.718616666667,18122.7248015473
54.7394833333326,18130.7665435342
54.7605166666666,18203.5904331721
54.7814000000001,18126.2976890707
54.8023333333334,18206.6047329797
54.8232833333334,18139.1165794584
54.8443666666669,18158.8410673656
54.8652499999991,18167.2270272951
54.8861333333328,18185.2332115615
54.9069833333332,18212.9392857628
54.9280333333339,18164.2308077663
54.9489666666672,18183.1299352225
54.9699000000005,18086.8067752068
54.9907333333329,18136.1332004806
55.0117333333339,18169.9247983431
55.0325999999995,18151.0637156203
55.0535333333329,18148.074886055
55.0744666666662,18151.9606307564
55.0955166666667,18202.3851019223
55.1164000000003,18156.7462554959
55.1373333333336,18193.6530837505
55.158266666667,18200.2763063165
55.1792499999999,18188.2390652371
55.2002166666663,18188.5397265588
55.2210999999998,18190.6447427005
55.2420333333331,18109.0467762335
55.2629666666664,18181.3276648407
55.28385,18181.3276648407
55.3047166666669,18276.6243792426
55.3256666666668,18195.759745684
55.3466000000002,18274.4915268802
55.3674333333326,18167.8264358635
55.388366666666,18270.5323587528
55.4093000000006,18219.2799765377
55.4302500000005,18221.6970947983
55.4512333333335,18308.3946347772
55.4721666666668,18226.5340114643
55.4930666666669,18206.3032405087
55.5139500000006,18249.254839376
55.5349000000003,18239.2479544996
55.5559333333329,18269.9234685191
55.5768666666663,18295.8513981916
55.59795,18236.2185838902
55.6188333333336,18262.9253000079
55.6397166666658,18289.7414599918
55.6606500000004,18228.6512872856
55.6817499999993,18244.0978664033
55.7026833333341,18228.6512872856
55.7235666666663,18226.8364374996
55.7444999999996,18284.8576136328
55.7654833333326,18256.2383955566
55.7864500000004,18317.5878694118
55.807483333333,18302.8848870451
55.828466666666,18328.022505965
55.8494666666668,18299.5201013357
55.8703500000005,18266.8798669123
55.8913166666669,18276.9291291943
55.9122500000002,18291.5738425128
55.9334999999995,18336.6282473502
55.9544833333339,18298.2969717365
55.9755833333328,18333.8608817553
55.9965166666661,18330.4801345884
56.0174499999994,18307.476021266
56.0383833333326,18397.8082746693
56.0593833333336,18360.9699222032
56.0804333333328,18333.5534689191
56.1016333333339,18394.3943365473
56.1225166666661,18356.9581008427
56.1433999999996,18348.6337071507
56.1643333333329,18396.2562638145
56.1854666666665,18379.2083947823
56.2065000000006,18324.9517675996
56.2274333333337,18405.2630549923
56.248366666667,18409.9266090582
56.2696166666665,18405.8846702047
56.2906500000006,18395.0149201066
56.3116000000003,18469.2877816556
56.3325333333336,18403.0878666466
56.3534166666673,18414.2822601824
56.3744666666664,18437.0409607272
56.3953999999997,18374.8760193894
56.4162999999998,18420.8211777196
56.4373833333337,18418.3293909937
56.458466666666,18497.2800935467
56.4794500000004,18488.7753836881
56.500483333333,18426.7429767661
56.5217333333338,18456.7458643776
56.5425666666663,18420.1981420782
56.5636000000004,18449.5451318021
56.5848499999997,18448.9193554473
56.6057333333333,18517.1675074988
56.6267166666663,18520.3298056015
56.6477166666672,18424.5606377975
56.6689166666668,18498.5409911539
56.6898500000001,18475.881923631
56.7108000000001,18518.7484655255
56.7316333333339,18550.1303451454
56.7525500000006,18445.7913710012
56.7736333333331,18509.900016144
56.7950333333328,18496.019438852
56.8159666666661,18546.0008984718
56.8367000000006,18512.1110070354
56.8579500000001,18511.4792191192
56.8791499999997,18566.6742402615
56.9010499999993,18558.7152238134
56.9230166666664,18534.5790890208
56.9436000000005,18544.4133433713
56.9646999999994,18463.6409439659
56.9857833333331,18627.8027496015
57.006566666666,18620.0902387603
57.0277666666669,18566.3556936709
57.0484333333339,18564.1263016188
57.069166666667,18564.7631932769
57.0899499999999,18600.5284225444
57.1107333333326,18537.4326729035
57.1314833333339,18599.5678730621
57.15225,18571.1355215014
57.1729833333332,18523.177181092
57.19365,18527.9255619234
57.214183333333,18576.8759273502
57.2349333333327,18589.9701251746
57.2556666666672,18613.3492403928
57.2764000000004,18654.5454785149
57.2971333333335,18570.1792765834
57.3178666666666,18570.1792765834
57.3385833333332,18574.0050949646
57.3593166666662,18637.4561886111
57.3800499999993,18620.7326009221
57.4007166666663,18660.0364157665
57.4213000000004,18590.6095372658
57.4420333333334,18677.5088420973
57.4627666666667,18613.0284136168
57.4836500000002,18635.8462928329
57.5043333333336,18684.9649919586
57.5272833333337,18707.05908181
57.547916666666,18624.9094926936
57.5685499999997,18669.737559078
57.5893333333339,18637.7782153003
57.6141500000002,18528.8756517017
57.6355333333335,18591.2490118424
57.6618000000005,18685.2893651877
57.6834000000004,18680.7496025323
57.7092833333337,18611.7452637844
57.7301333333329,18617.5214204981
57.7521499999996,18703.1547002285
57.7734333333336,18649.059144915
57.7947333333326,18646.4789316284
57.815266666667,18674.2696858404
57.8365166666665,18678.8049536809
57.8572499999996,18654.2226256477
57.8779833333326,18613.6700828992
57.898666666666,18656.8058947014
57.919333333333,18662.9452489475
57.9400666666661,18677.8328459266
57.9607499999995,18676.8608825625
57.981433333333,18697.9524792755
58.0021166666665,18685.9381598875
58.0227833333333,18723.35246042
58.0445500000003,18684.6406348078
58.0670166666672,18627.8027496015
58.0896999999993,18718.4601856613
58.1111166666673,18722.0474961448
58.1337833333328,18761.3100739523
58.1544666666662,18748.52387834
58.1751499999998,18748.52387834
58.1958333333332,18756.3893493164
58.2172666666661,18838.5563899506
58.2379499999995,18766.5629286085
58.2586833333326,18795.8591447968
58.2795166666666,18793.8799906321
58.30065,18790.5827299876
58.3216999999992,18833.9090805323
58.342366666666,18779.3844549856
58.3630499999996,18814.6910246146
58.383733333333,18846.8633747621
58.404433333333,18851.5198965969
58.4251166666664,18771.491312345
58.4457999999998,18783.9931887867
58.4664833333332,18818.6625460818
58.4871500000002,18800.1493667713
58.5076666666666,18876.5221303417
58.5283666666666,18895.5879229681
58.5498499999992,18838.5563899506
58.5705833333337,18819.3247007332
58.5916666666662,18834.9046547417
58.6125,18833.5772561193
58.6331833333334,18861.1761027384
58.6539666666663,18890.8999478054
58.6746999999994,18872.5153478898
58.6955000000002,18877.5242094131
58.7162333333332,18910.3434617786
58.7369666666665,18833.5772561193
58.7576999999995,18873.1829746145
58.7783333333333,18902.6261889066
58.7990666666665,18875.1862635745
58.8197333333333,18931.528805199
58.8404499999999,18884.2086610251
58.8611333333333,18891.569452956
58.8818333333334,18870.8465790193
58.9025499999998,18905.9804066932
58.923283333333,18887.5534491457
58.9440666666672,18841.5456898036
58.9648500000001,18947.0409069481
58.98555,18884.2086610251
59.0062833333332,18883.5399085119
59.0270166666663,18908.6650193818
59.0477499999993,18971.055912161
59.0684333333329,18892.5738391343
59.0890833333331,18904.9739608165
59.1097666666667,18917.3976248327
59.1304500000001,18896.2579079525
59.1511833333331,18926.8150202402
59.1719166666662,18958.1918497258
59.1926499999994,18978.5151022642
59.2133833333339,18915.0453921139
59.234116666667,18951.4314344992
59.2548000000006,18938.605855461
59.2755500000003,18954.1347625362
59.2962166666671,18909.3363446798
59.3169500000001,18905.9804066932
59.3375833333324,18937.257255665
59.3583166666669,18936.5830599776
59.3790333333336,18979.5329236537
59.3997666666668,18996.1797889765
59.4204999999999,18936.2459881802
59.4412333333329,18978.5151022642
59.4618666666667,19006.0520008509
59.4825333333337,19001.2842459321
59.5032666666667,18945.0155027524
59.5239500000001,19001.9651411344
59.5446333333337,18998.5613733924
59.5653833333334,18973.0893936368
59.5860666666668,18979.5329236537
59.6067999999999,18992.7790284091
59.6275333333329,19024.4745217604
59.6482666666662,19066.6315579891
59.668933333333,19049.1188400526
59.6896666666662,19012.8691108919
59.7103833333326,19040.8937504562
59.7310666666661,19054.6079823156
59.7517499999996,19008.7779926989
59.7724833333325,19065.9439010594
59.7932166666672,19063.1939957454
59.8138499999995,19045.6904628921
59.8345333333329,19084.8808474532
59.8552833333326,19083.5017656069
59.8759499999996,19044.6622999021
59.896633333333,19077.9883427749
59.9173166666664,19106.2938652868
59.9379999999998,19123.2667686167
59.9587166666664,19093.506700033
59.9794499999995,19047.0615982217
60.0001833333325,19074.5448109707
60.0209166666672,19115.6408352711
60.0416500000003,19092.8162132395
60.0623333333339,19103.5269547439
60.0829999999992,19111.8311986713
60.1036833333326,19145.5019677934
60.124366666666,19072.1354164529
60.1450999999993,19140.9793240888
60.1659,19097.9966410096
60.1865833333334,19126.3890318981
60.2073166666665,19134.3749239959
60.2280499999997,19168.162192184
60.2487333333332,19149.6794920104
60.2694499999998,19165.7180866487
60.2901666666662,19108.7158721013
60.3108499999996,19113.2162644689
60.3317999999996,19181.7960881931
60.3527333333329,19129.1656282426
60.3734166666663,19162.5770060247
60.3943499999996,19157.3452199054
60.415033333333,19118.7594611889
60.4359666666663,19153.5112334471
60.4568666666664,19145.5019677934
60.4777999999997,19140.631557855
60.4986833333334,19161.1814540176
60.5194166666664,19110.7925916797
60.5403166666665,19187.3977092823
60.5612833333331,19160.1349852923
60.5821666666666,19132.638031262
60.6030999999999,19170.6072109402
60.6239833333335,19157.3452199054
60.6446666666669,19209.1493959881
60.6655500000006,19220.4044262699
60.686233333334,19194.7571214956
60.7071666666673,19208.446598937
60.7277999999996,19207.0412312351
60.7486999999997,19158.0425497586
60.7695999999998,19187.0474674466
60.7905333333331,19178.9970748
60.8115166666661,19188.098249197
60.8323000000004,19260.3043473803
60.8530166666669,19188.098249197
60.8739500000002,19232.0314870813
60.8946833333332,19226.0392091048
60.9156166666666,19248.9805403813
60.9363,19245.0925030669
60.9569833333335,19195.1077762306
60.9779166666667,19243.3259767661
60.9988999999997,19300.0927030637
61.02,19266.6826107357
61.0407,19244.3858353193
61.0614333333331,19269.8740752924
61.0821666666663,19262.0754636757
61.1028499999997,19302.9440073949
61.1235166666665,19240.1474306783
61.1441833333335,19239.0882583212
61.1651833333331,19238.7352389627
61.1860166666669,19194.7571214956
61.20675,19210.2037331106
61.2274166666669,19262.7840444384
61.2481999999997,19164.3218646694
61.2689333333329,19235.9117694894
61.2899833333334,19237.3233519436
61.3107666666663,19267.39169058
61.3316166666667,19249.3341128972
61.3540333333325,19231.326228328
61.3752833333333,19324.3684835991
61.3987166666664,19293.6818072122
61.4197500000005,19253.5784738935
61.4442166666661,19307.9367814511
61.4650500000001,19253.9322949397
61.4857333333335,19285.4992363936
61.5064666666666,19299.023784164
61.5312833333329,19032.6789863227
61.5526333333329,19321.1503370339
61.5740333333328,19251.8096555731
61.5949666666662,19307.9367814511
61.6156166666663,19292.2580162283
