0,33.3229974813412
0.0206000000005346,72.0862278615798
0.0411333333335229,39.7347995655063
0.06166666666795,39.8611091918443
0.0821833333328925,39.7095380717715
0.10271666666732,80.134602651616
0.123250000000308,56.5149116718516
0.143766666666689,36.8306702566083
0.164316666666124,38.0173455782671
0.184850000000552,54.1319660871597
0.205466666667853,30.7255744950571
0.226050000000502,56.8192096406862
0.246633333333151,48.5851696022715
0.267150000000971,43.171703434385
0.287683333333959,46.4341702096399
0.308250000000001,63.519051007977
0.328766666667821,47.0920122576465
0.34930000000081,76.5670654258878
0.369833333333798,94.2544880492048
0.390350000000179,64.0270272793952
0.410883333333008,63.0619220884182
0.431416666667435,70.432516760803
0.451950000000423,108.470768168406
0.472483333333411,89.2703739627725
0.493016666666399,84.0622099279409
0.51353333333406,78.8856382684841
0.534066666667208,112.62898888595
0.554649999999697,118.050793646095
0.575166666667677,133.117556188216
0.595733333333719,100.729413115294
0.616266666666707,142.233939792689
0.636783333333089,122.552583310841
0.657316666667516,111.601905303501
0.677850000000504,111.114123886997
0.698366666666885,141.897876499381
0.718899999999714,158.057699188875
0.739433333334141,130.151670474985
0.759966666667129,131.724632485948
0.780500000000117,138.073718729871
0.801016666666499,178.027858287026
0.821550000000926,177.376370531565
0.842083333333914,151.990865636514
0.862600000000295,159.407011837255
0.883116666666677,163.405462199511
0.903649999999665,209.701036454239
0.924166666667485,199.947454016292
0.944700000000474,182.930113441845
0.965233333333462,192.332555515759
0.985800000000943,196.125286951418
1.00633333333393,202.934176950771
1.02686666666692,229.905554260132
1.04739999999975,252.481137350671
1.06793333333417,229.510052443284
1.08851666666682,255.105659334496
1.1090333333332,237.928665404951
1.12956666666763,243.929083449814
1.15010000000062,262.244787102674
1.17060000000039,293.350117126002
1.19113333333338,262.829164808488
1.21196666666737,273.387775353128
1.23250000000036,284.05164963102
1.25306666666784,283.624602147467
1.27360000000083,293.537355362977
1.29413333333366,322.897573099634
1.3146500000002,335.220078554564
1.33519999999963,317.058368238909
1.35571666666745,322.574466931844
1.37625000000044,344.437120016841
1.39683333333309,372.176471799201
1.41735000000091,379.779386954681
1.4378833333339,391.331296958994
1.45840000000028,359.751032911231
1.47891666666666,375.717427688766
1.49945000000109,392.315828569758
1.5200833333334,397.73466134975
1.54059999999978,401.323490318003
1.56113333333405,414.195900953834
1.5816666666672,454.647278778603
1.60218333333358,447.718160822997
1.62278333333283,481.077071005507
1.6433166666671,457.560738639962
1.66383333333348,460.503887744673
1.68436666666647,464.004889743966
1.70484999999964,479.403154688179
1.72536666666762,486.801055202155
1.74590000000061,499.167708746614
1.76641666666683,543.601710951818
1.78693333333337,530.377081110216
1.8074666666678,531.477629162023
1.82800000000078,535.910804342957
1.84851666666717,583.713681491355
1.86905000000015,583.513787356035
1.88956666666654,564.19517162239
1.91011666666741,573.701498894364
1.9306500000004,605.125868159224
1.95116666666678,641.053756895183
1.97169999999977,612.909066296314
1.99223333333419,625.719289108036
2.01275000000058,626.267066683197
2.03328333333356,679.25868352986
2.05379999999995,671.795234768469
2.07431666666633,658.270612722311
2.09485000000075,667.92269029972
2.11538333333374,698.353364663874
2.13590000000012,733.629325061517
2.15648333333405,738.06230386757
2.1770166666672,754.799735574604
2.19755000000019,726.958657012224
2.21808333333302,742.292538607094
2.238600000001,750.350009192828
2.25913333333382,802.723284794171
2.27966666666681,793.312622779516
2.30018333333319,797.236300451224
2.32071666666762,796.816810468772
2.341233333334,816.184614348759
2.36180000000004,853.293888097981
2.38238333333269,860.947683151773
2.40291666666712,835.24442772246
2.4234333333335,884.171959228865
2.44396666666649,877.484806916214
2.46455000000058,873.36760599753
2.48506666666696,889.920579814126
2.50561666666655,897.178141389822
2.52615000000098,897.515278724669
2.54666666666736,953.465735915586
2.56720000000035,967.237368478545
2.58773333333318,939.95332813586
2.60835000000048,963.751561460874
2.62886666666686,1002.34105807772
2.64939999999969,1000.36437914488
2.66991666666623,991.871550367474
2.69045000000066,1004.63259762502
2.71098333333349,1033.29815391885
2.73150000000003,1066.98770811241
2.75203333333286,1043.07412031822
2.77256666666728,1059.79690828916
2.79310000000027,1068.42089699918
2.81363333333326,1117.58790389261
2.83416666666769,1106.00787253725
2.85468333333407,1092.82418422579
2.8752166666669,1110.08960042889
2.89574999999989,1147.70849762697
2.91626666666787,1175.13003560927
2.93678333333409,1155.36815959155
2.95730000000063,1166.91507479728
2.97783333333362,1172.55307332842
2.99836666666645,1225.86384419244
3.01888333333443,1212.51710537199
3.03941666666725,1207.61690963147
3.05995000000024,1216.69805924253
3.08048333333323,1254.33892943208
3.10101666666766,1288.08258826644
3.12155000000065,1260.55487061322
3.14206666666703,1274.88133641499
3.16260000000002,1278.65388734292
3.18313333333284,1326.74180286115
3.20401666666649,1307.16839163899
3.22451666666787,1321.10686126608
3.2450500000007,1364.92345251443
3.26558333333368,1352.20496640874
3.28610000000006,1353.93715989482
3.30663333333305,1368.26214155498
3.32716666666748,1419.37028680784
3.34768333333386,1416.71643140379
3.36823333333346,1404.74214459526
3.38881666666754,1416.68197618953
3.40933333333393,1430.55458557264
3.42986666666691,1438.64970608455
3.45045000000084,1499.45241073716
3.47096666666738,1483.36889071773
3.49150000000021,1514.71374086028
3.51201666666675,1480.92118244728
3.53253333333313,1499.24179208618
3.5530666666674,1514.78419123402
3.57358333333394,1574.11131633958
3.59411666666677,1550.93147974121
3.61464999999976,1546.28162923444
3.63516666666758,1556.2972844845
3.65571666666717,1604.30869398461
3.67625000000016,1619.61104829486
3.69676666666798,1593.78972442399
3.71730000000097,1599.63849604537
3.73798333333438,1615.46519974416
3.75850000000076,1660.66512971113
3.77903333333375,1679.52552489872
3.79955000000013,1655.06260353584
3.82006666666651,1669.41046871138
3.84060000000094,1683.51214941611
3.86118333333359,1698.87032090962
3.88169999999997,1712.36628479008
3.9022333333344,1753.51115619337
3.92276666666739,1749.42402114292
3.94328333333377,1757.30441254048
3.9638333333332,1758.04856876619
3.98436666666763,1779.72097002522
4.00488333333401,1825.53901107299
4.025416666667,1808.34408517592
4.04594999999999,1799.62130202406
4.06651666666747,1787.76779174517
4.08708333333351,1868.59127227214
4.1076666666676,1879.66852187333
4.12818333333398,1878.55955144876
4.14871666666697,1860.85362159442
4.16924999999996,1871.75883328975
4.18976666666634,1895.41518666477
4.21030000000076,1944.00211469984
4.23083333333375,1946.33095263279
4.25136666666674,1928.00502975751
4.27189999999957,1940.39483011211
4.292433333334,1957.21505626871
4.3130000000002,1973.31800745109
4.33353333333303,1980.19808323569
4.35406666666745,2024.98295003115
4.37458333333383,2020.75647456636
4.39510000000022,2014.16804856471
4.41561666666676,2031.38958558336
4.43614999999959,2057.30808194024
4.45668333333401,2095.60860316183
4.47720000000039,2080.01661842357
4.49773333333338,2087.22460741639
4.51831666666747,2075.93728371179
4.53885000000046,2102.9626465347
4.55938333333345,2118.51454423565
4.57991666666787,2168.47873269845
4.6004333333341,2162.19725426917
4.62096666666708,2156.57594282466
4.64150000000007,2173.82907776606
4.66201666666645,2191.43676864691
4.68253333333443,2227.40088817216
4.70306666666726,2212.04030980477
4.72358333333364,2221.69640199491
4.74411666666663,2232.82281111562
4.76465000000106,2289.88400391665
4.78516666666744,2261.61596558173
4.80570000000043,2256.11712854271
4.82629999999968,2273.97152528806
4.84696666666649,2290.42938914819
4.86750000000091,2296.6011075009
4.8880333333339,2344.12009826251
4.90855000000028,2349.09141928635
4.92908333333327,2335.38068995845
4.9496166666677,2349.34650905127
4.97011666666747,2369.54509105605
4.99065000000046,2409.48755137339
5.01118333333345,2385.46180213762
5.03169999999967,2395.37438348998
5.0522333333341,2417.16536177899
5.07275000000064,2454.70996355678
5.09328333333363,2441.6677500234
5.11383333333306,2442.62287734787
5.13435000000088,2454.88411901572
5.15488333333387,2488.93187780266
5.17541666666686,2510.70341280298
5.19593333333468,2498.33111047186
5.21646666666623,2499.82628146906
5.23705000000032,2518.69106977882
5.25755000000009,2524.12736492473
5.27808333333308,2560.94189405155
5.29861666666751,2584.72909325009
5.31913333333389,2565.18026479249
5.33966666666688,2572.10420585287
5.3601999999997,2582.71207291056
5.38071666666768,2635.95382283425
5.4014166666677,2644.98836661542
5.42195000000053,2612.6129137608
5.44246666666691,2633.41475232863
5.4629999999999,2645.71556182426
5.48353333333289,2685.80425068836
5.50405000000071,2684.4284835795
5.52458333333369,2677.73916734022
5.54510000000008,2697.97542493809
5.56566666666772,2717.51902512104
5.58620000000055,2712.25591002955
5.60673333333353,2759.85024655195
5.62724999999992,2747.97347799942
5.64778333333434,2735.71093620343
5.66831666666733,2751.50989601083
5.68883333333371,2781.87128915182
5.70948333333407,2772.08625104539
5.73001666666706,2791.53703790702
5.75053333333344,2812.86666492304
5.77106666666786,2852.88224104866
5.79160000000069,2817.02209073711
5.81211666666723,2838.00020240942
5.83265000000006,2854.97829270484
5.85316666666644,2899.80325381773
5.87368333333442,2869.34381261008
5.89421666666725,2888.31443498052
5.91473333333379,2886.58647696138
5.93526666666662,2943.96747718931
5.95580000000105,2913.34919271398
5.97631666666743,2928.05060136615
5.99686666666702,2939.10871716408
6.01740000000001,2985.09065379902
6.03791666666783,2956.28395469144
6.05845000000082,2963.11412113049
6.07898333333365,2972.20478140636
6.09965000000061,3022.83604269237
6.1201833333336,2996.19366361683
6.14069999999998,3004.66240253298
6.1612166666678,3009.69220831545
6.18175000000079,3066.64900009576
6.20228333333378,3057.71206844314
6.22280000000016,3041.87955027606
6.24333333333315,3057.06371821704
6.26386666666742,3108.88028851483
6.2844000000004,3084.07528565223
6.30498333333305,3131.13636554823
6.32551666666748,3101.7214108972
6.34608333333352,3090.90420416033
6.36661666666651,3117.87043989159
6.38715000000094,3140.07015305494
6.40766666666732,3172.81152793771
6.4281833333337,3175.42286796174
6.44871666666669,3163.35189963478
6.46923333333307,3182.18877655735
6.48981666666716,3192.04855469862
6.51035000000014,3196.42056831159
6.53086666666797,3255.26862621594
6.55140000000095,3237.57365303042
6.57195000000039,3229.01175641869
6.59246666666677,3240.63919471396
6.61299999999976,3278.48295410091
6.63351666666614,3303.92781578457
6.65410000000023,3307.14508986181
6.67463333333322,3302.39910991989
6.6952166666673,3284.77800469297
6.71571666666724,3304.19143900928
6.73629999999973,3341.94541584335
6.75688333333381,3355.52627195279
6.77740000000036,3342.37085084179
6.79793333333318,3341.57319368336
6.81851666666727,3361.02368216544
6.83903333333365,3356.69990409365
6.85958333333325,3364.54987894521
6.88016666666734,3409.02741749162
6.90073333333338,3395.92793366497
6.9212666666678,3400.02073627848
6.94180000000079,3418.70163173379
6.96231666666717,3457.1196315275
6.98285000000016,3452.91931294462
7.00336666666654,3432.62841712171
7.02388333333293,3446.8168489196
7.04441666666735,3464.11079132911
7.06510000000076,3498.62679269925
7.08561666666714,3524.1509285831
7.10615000000013,3491.74607812818
7.12668333333312,3503.53237372642
7.14720000000094,3514.07842879476
7.1678000000002,3548.37407575801
7.18838333333412,3510.10000802785
7.20895000000033,3543.58563294025
7.22953333333441,3585.46417022487
7.2500666666674,3555.17586173822
7.27058333333378,3578.27929304678
7.29111666666661,3604.26718901425
7.31168333333409,3628.42243285223
7.33220000000063,3643.87823632484
7.35273333333362,3628.08210225956
7.37326666666645,3626.77774345907
7.39378333333443,3638.41709632486
7.41431666666726,3678.10615435355
7.43489999999991,3674.72304154879
7.45548333333399,3665.67586485005
7.47601666666682,3699.84244063987
7.49654999999997,3701.97580006721
7.51706666666779,3692.7578266754
7.53760000000078,3704.34099179051
7.55813333333377,3740.02918929325
7.57876666666752,3720.70106419085
7.59926666666729,3730.15145745781
7.61980000000028,3766.10724456058
7.64031666666666,3783.6369107864
7.66084999999965,3761.19495957913
7.68138333333408,3776.94518665439
7.70190000000046,3793.81121588328
7.72243333333345,3825.42357563289
7.74298333333432,3798.11142985925
7.7635000000007,3800.88226812132
7.78403333333369,3828.27086728965
7.80456666666668,3864.79475915815
7.82508333333306,3843.96371997822
7.84561666666749,3845.15483746387
7.86620000000013,3840.74929924077
7.88669999999991,3869.22425215753
7.9072333333329,3885.00279693721
7.92776666666732,3923.15034699188
7.94828333333371,3897.82287521395
7.96881666666669,3903.61307209865
7.98940000000078,3910.31742132939
8.00991666666716,3927.94193748387
8.03046666666676,3938.57468579354
8.05098333333314,3988.98510429172
8.07151666666741,3977.80137354414
8.0920500000004,3961.68991195514
8.1126833333327,4003.46746499548
8.13320000000052,4023.51247693712
8.15373333333351,3998.59364974012
8.17424999999989,4011.37566306665
8.19476666666787,3998.71697143078
8.21535000000036,4018.18305165878
8.23588333333335,4020.66105776144
8.25639999999973,4052.00310685733
8.27693333333416,4078.10336313108
8.29745000000054,4071.39151578176
8.31800000000014,4069.76213193236
8.33853333333312,4073.33502512162
8.35905000000095,4100.06611900377
8.37958333333393,4123.59661104909
8.40011666666676,4107.95895589393
8.4206333333333,4114.03020233535
8.44116666666757,4111.75251115905
8.46168333333411,4152.22873108619
8.48220000000049,4163.60552572267
8.50273333333348,4131.97623110025
8.52326666666775,4145.85004936391
8.54378333333269,4166.74246780535
8.56431666666712,4193.78635360914
8.5848333333335,4176.10244699179
8.60536666666649,4177.12939981128
8.62601666666684,4230.92617842435
8.64654999999967,4201.26693674071
8.66706666666765,4211.86450248649
8.68769999999996,4255.7510253156
8.70823333333439,4225.53651870873
8.72875000000077,4228.06819394669
8.74928333333376,4248.63470663462
8.76980000000014,4298.09659506266
8.79036666666762,4288.08102104872
8.81095000000027,4302.32045272191
8.83153333333436,4297.23911514882
8.8521000000004,4314.68512843064
8.87268333333305,4292.55887776033
8.89326666666713,4316.73822156772
8.91381666666673,4319.52134815245
8.93433333333311,4324.49556381343
8.9549166666672,4381.46492207941
8.97549999999969,4361.74679941043
8.99601666666623,4351.38636523397
9.01655000000066,4388.39375425259
9.03708333333348,4400.59594171223
9.05978333333367,4381.80102336676
9.08036666666776,4395.46828319615
9.10095000000041,4382.74224245597
9.12146666666679,4412.42563397076
9.14199999999978,4416.21780724837
9.16253333333405,4460.95192463156
9.18305000000059,4455.07059577364
9.20364999999968,4489.51173980582
9.22423333333393,4500.13116741895
9.24479999999997,4489.30512004655
9.26538333333406,4489.4428654835
9.28596666666671,4525.40257857831
9.3065500000008,4516.3852878232
9.32711666666684,4504.48281586415
9.34768333333288,4509.18462826315
9.36826666666697,4489.02964200241
9.38878333333335,4523.52824805196
9.40936666666744,4532.35144936868
9.42995000000009,4554.59136794924
9.45046666666647,4545.65411648833
9.47105000000056,4558.08737771281
9.49164999999965,4553.05399598526
9.51218333333408,4571.25708308045
9.53275000000028,4581.51165796175
9.55333333333437,4590.59197282109
9.57391666666702,4617.09427084993
9.5944333333334,4611.00240481539
9.61496666666783,4620.42708486041
9.63553333333387,4667.99657148732
9.65614999999957,4675.3162407153
9.676683333334,4646.6805784658
9.69721666666683,4659.25750430963
9.71773333333337,4674.81352433304
9.73826666666636,4709.41816136643
9.75885000000044,4727.98493126552
9.77943333333309,4716.51657662991
9.80001666666718,4722.90035662661
9.82059999999967,4695.39960397173
9.84118333333392,4727.54888217086
9.86174999999996,4727.40354199622
9.88233333333405,4695.83250444146
9.90291666666669,4700.38051154562
9.92348333333418,4725.95040206826
9.94405000000022,4781.1393050816
9.96463333333287,4765.79299996339
9.98521666666679,4798.08916485067
10.0057833333332,4795.35807359778
10.0263666666671,4800.96970386781
10.0472000000011,4782.61063787359
10.0678000000003,4845.59767779633
10.0883833333344,4852.91754516704
10.1089000000008,4854.41288069205
10.1294333333338,4849.48018499208
10.1499666666666,4847.16520440693
10.1704833333332,4848.28520546319
10.1910166666674,4910.93067271961
10.2115166666674,4865.34412596019
10.2320500000003,4886.91109078005
10.2525833333332,4899.28230756869
10.2730999999997,4921.24303324265
10.2936833333336,4953.0128105064
10.3143166666676,4964.6499734835
10.3349000000002,4964.80329769849
10.3554833333341,4910.17335615431
10.3760666666668,4910.02190835323
10.3966500000009,4944.15230938435
10.4172333333335,4917.14554971021
10.4377999999997,4969.7892214798
10.4583833333336,4960.35904541307
10.4789666666677,5012.59108092969
10.4995333333339,4978.70112477458
10.5201,5000.90493892113
10.5406833333341,5024.07499729815
10.5612666666667,5034.65405860855
10.5818333333342,5029.28358812286
10.6024166666668,5038.70566991845
10.6230500000006,5082.10218857232
10.643566666667,5033.17458467146
10.6641666666662,5032.86317933245
10.6847500000003,5039.17340172283
10.7052666666667,5053.69760109019
10.7258000000011,5084.54310055758
10.7463333333341,5136.5133755986
10.7668500000005,5096.2150337618
10.7873833333335,5102.77424479146
10.807950000001,5114.57360000695
10.8285833333333,5154.87977000845
10.8492000000004,5143.29210176009
10.8697833333331,5135.15887240067
10.8903666666671,5133.00845224581
10.9109333333332,5142.73346218743
10.9315166666673,5194.90948749204
10.9521166666665,5166.49778373247
10.9727000000006,5190.71274931588
10.9932666666667,5178.70941919996
11.0138500000008,5229.92904553919
11.0344333333334,5223.91067075291
11.0550166666675,5192.16501715374
11.0755333333339,5212.70897803688
11.0960999999999,5223.50431811788
11.116683333334,5260.71762037851
11.1372500000002,5220.33604429492
11.1578333333341,5258.42357588537
11.1784166666668,5253.42993948328
11.198983333333,5272.04134550188
11.2195666666669,5296.92355091279
11.2401666666676,5277.63180005086
11.2607500000003,5311.3232779986
11.2812666666666,5295.60178156859
11.3017999999996,5302.049129933
11.322333333334,5301.96641230016
11.3428500000004,5356.81447706274
11.3633833333349,5326.18572459693
11.3838833333332,5331.51177877751
11.4045166666669,5375.78152521523
11.4250999999996,5378.64200527817
11.4456833333337,5365.78434433547
11.4662499999997,5389.00564484398
11.4868333333338,5396.35066961382
11.5074166666665,5413.19721924662
11.5280166666672,5391.53703857932
11.5485833333332,5360.58464162972
11.5691166666676,5412.85796435922
11.5897000000003,5430.19312617806
11.6102666666663,5396.35066961382
11.6308500000004,5397.28021747509
11.651433333333,5454.69657414281
11.6720000000005,5473.5717685493
11.6925666666667,5467.64317295492
11.7131500000008,5453.07020471302
11.7337333333335,5466.5270775812
11.7543000000009,5507.6641764968
11.7748333333339,5487.34979910489
11.7953666666668,5518.94200773001
11.8158999999998,5493.99575874018
11.8364333333342,5487.78105280254
11.8569666666672,5526.59253641636
11.8775333333332,5507.49089513127
11.8981166666673,5516.33688551904
11.9186500000003,5532.07773426365
11.9392666666674,5532.94902460786
11.9597833333338,5556.53877972923
11.9803166666668,5561.62261672019
12.0008333333332,5598.96524150044
12.0213666666676,5577.0851898365
12.0419000000006,5571.01673418222
12.0624166666668,5575.58929227234
12.08295,5622.19828028614
12.103500000001,5602.50441016135
12.1240166666674,5601.35387062899
12.1446,5583.33822009119
12.1651333333343,5611.71948389099
12.1856500000008,5635.64379039647
12.2061833333337,5667.41554109851
12.2267166666667,5635.10875357319
12.247233333333,5638.23071173313
12.2677500000009,5654.41084683912
12.2883333333335,5703.21780993561
12.3088499999999,5697.15531146017
12.3293833333329,5683.61251482979
12.3499166666673,5679.46765988173
12.3704333333337,5677.03661255659
12.3909666666667,5727.0047547555
12.4118666666668,5689.47598495315
12.4323999999998,5735.47897685287
12.4530166666669,5711.82811602329
12.4735499999999,5727.73308410832
12.494133333334,5759.34829650699
12.5147000000002,5765.40461503882
12.5352333333332,5736.84730409507
12.555750000001,5786.66707579402
12.5762666666674,5750.09627113874
12.5968000000004,5753.11708841632
12.6173333333332,5761.18267162529
12.6378499999997,5806.64147557343
12.658383333334,5782.60921892537
12.678916666667,5774.78067240766
12.69945,5774.22859075265
12.719983333333,5820.00787980716
12.7405166666674,5814.15512208504
12.7610333333338,5813.78377897271
12.7815666666667,5806.64147557343
12.8020999999996,5839.19954873294
12.8226166666676,5866.82814724373
12.8431833333336,5861.00716060995
12.863716666668,5871.52806098328
12.8842333333344,5847.98457370338
12.9047666666674,5839.10618447429
12.9252833333338,5880.18893303657
12.9458166666666,5900.87385823904
12.9663499999996,5880.37740076788
12.986883333334,5886.41259946814
13.0075166666678,5929.46211794883
13.0280500000008,5900.68451778575
13.0485666666671,5903.90440499222
13.0691000000001,5903.90440499222
13.0896333333331,5936.80508114513
13.1101500000009,5949.70851434877
13.1306666666673,5928.50937744041
13.1512000000003,5920.98991165392
13.1717166666667,5977.16928251234
13.1922500000011,5973.51084229515
13.2127833333341,5959.38679567942
13.2333000000005,5955.74298416401
13.2538333333335,5997.15130624481
13.2743833333343,6011.97868950065
13.2949000000007,5981.89120252062
13.3154333333337,5988.45240902563
13.3359666666667,6006.83679455937
13.3564833333345,6035.04488096409
13.3770666666672,6028.31702343305
13.3976000000002,6029.68127117033
13.4180999999999,6021.79392525349
13.4386333333329,6032.31350568286
13.4591500000007,6041.78295679226
13.4797333333334,6034.3618794755
13.5003166666675,6039.0474312158
13.5208500000005,6056.56440183234
13.5414666666676,6066.47888785798
13.5620166666672,6075.43075604816
13.5825500000002,6073.36333649455
13.603066666668,6094.5754742335
13.623600000001,6123.94609666939
13.6441333333338,6102.89063916128
13.6646500000002,6094.08101504633
13.6851833333332,6116.28703432406
13.7056999999996,6161.73811473214
13.7262166666676,6139.60371224733
13.7467500000004,6137.80576443736
13.7672666666668,6128.52795750275
13.7878500000009,6134.1122695301
13.8085833333341,6153.81312858488
13.8291166666669,6157.9243290006
13.8496333333335,6158.22529817818
13.8701833333343,6186.60795804789
13.8907166666673,6202.99538708249
13.9112333333337,6177.22763732975
13.9318166666678,6170.78386445496
13.9523500000008,6194.38949706156
13.9728666666672,6190.44649227254
13.9934000000001,6221.17315787489
14.0139166666665,6238.19973004644
14.0344333333344,6229.32144615469
14.0549666666673,6232.07487473344
14.0755000000003,6242.90118562911
14.0961166666675,6270.18600536429
14.1166500000005,6238.09757980271
14.1371833333334,6245.97003872969
14.1577166666679,6267.40882904902
14.1782500000007,6290.60525989051
14.1987833333337,6294.63833694489
14.2193000000001,6278.83724400216
14.2398333333331,6282.8596323156
14.2603500000009,6284.09802432914
14.2808833333339,6324.11849571678
14.3014499999999,6328.18216836907
14.3219666666663,6349.49917227884
14.3425000000007,6332.87565136182
14.3630333333337,6342.27753993374
14.3835500000001,6332.98000740206
14.4040833333331,6373.44590287722
14.4246166666675,6364.39817487717
14.4451500000005,6352.22341931587
14.4656833333335,6327.45251708345
14.4862666666674,6356.41783785691
14.5067833333339,6352.6426827628
14.5273166666668,6395.08787026321
14.5478499999998,6392.33718242362
14.5683666666676,6392.4429465794
14.588883333334,6375.44731060286
14.609416666667,6420.87901664501
14.6299333333333,6417.36770457902
14.6505666666671,6406.42599476401
14.6711000000001,6422.26302419341
14.6916166666665,6436.87464544497
14.7121500000009,6427.69676553192
14.7327000000005,6429.18954575715
14.7532166666669,6459.68799079599
14.7737499999997,6484.13063380327
14.7942833333341,6448.64153628315
14.8148000000007,6441.04297296786
14.8353333333336,6466.9958982382
14.85585,6490.50567864182
14.8763666666678,6467.64129191993
14.8969000000008,6464.63025768748
14.9174166666672,6503.5002042554
14.9379500000002,6521.43005283016
14.958483333333,6496.02370206297
14.9790000000008,6489.42451760893
14.9995333333338,6505.34417720959
15.0201333333331,6544.24571742069
15.0406500000009,6530.47677794314
15.0611833333339,6563.99005731319
15.0817166666669,6541.18225796603
15.1022333333333,6541.61976553873
15.1227666666677,6537.46518457329
15.1433000000005,6600.63951815194
15.1638166666669,6569.27008907127
15.1844333333341,6558.49669831463
15.2050166666669,6608.84980099013
15.2255833333343,6566.84929443983
15.2461166666673,6582.16655468581
15.2667,6584.81662365428
15.2872166666664,6612.96064732763
15.3077500000008,6636.14143563161
15.3283000000002,6604.96466530056
15.3488166666668,6624.20157634242
15.369350000001,6632.45562095873
15.389883333334,6661.57869374665
15.4104000000004,6633.46053949178
15.4309333333334,6630.89286665902
15.4514666666678,6647.21728851097
15.4719666666661,6679.48323862729
15.4925000000006,6672.94364618326
15.5130333333336,6674.40857895125
15.5335499999999,6654.39217988013
15.554133333334,6714.03200903072
15.574666666667,6689.31073748238
15.5951833333334,6721.42976989177
15.615733333333,6727.35687319208
15.6362666666673,6692.25192123461
15.6568333333335,6694.74213907641
15.6776166666676,6712.09924335232
15.6981500000006,6726.1024023339
15.7187333333333,6762.39691971197
15.7392500000011,6745.52941156651
15.7597666666675,6781.17563542008
15.7803500000001,6725.41829498322
15.8008666666679,6788.80195356067
15.8214000000009,6752.63578010775
15.8419333333339,6766.88275798206
15.8624500000003,6770.7971930067
15.883033333333,6811.87613481566
15.9035833333338,6805.13859595157
15.9241000000002,6826.78149369802
15.9446333333332,6806.64784453234
15.9652166666673,6832.15036292757
15.9857833333333,6813.15509903152
16.0063666666674,6840.21586885932
16.0269500000001,6846.30392513736
16.04745,6864.97132547502
16.0679833333344,6832.26714966428
16.0885166666673,6836.12283769863
16.1090333333338,6852.98698363498
16.1295666666666,6901.71294139827
16.150100000001,6860.62032150985
16.1706166666674,6861.20804571557
16.191166666667,6897.6813264992
16.2117,6914.42463135586
16.2324166666665,6915.3765030884
16.2530000000006,6903.96749944204
16.2735833333332,6935.89129982194
16.2941166666676,6921.21117807178
16.314633333334,6930.6342920147
16.3352000000001,6941.99245474758
16.3557833333341,6905.62948619573
16.3763500000004,6931.35079000992
16.3968833333332,6972.86581672671
16.4174666666673,6963.35267011307
16.4379833333336,6986.38786632757
16.4585666666677,6975.75993120416
16.479166666667,6938.76138639165
16.4998500000004,7014.28625811031
16.5204666666677,6962.51071608859
16.5410500000004,6953.13973688171
16.5617333333338,6982.88266518482
16.5823166666678,6973.22747780437
16.6028333333341,6974.55382072167
16.6233666666672,6990.0168531642
16.6438833333336,7033.06459383704
16.6644,7035.75371350964
16.684933333333,7013.79956663262
16.7055166666671,7036.12053797016
16.7261333333342,7031.72064500162
16.7467666666665,7041.38169097155
16.7673166666675,7028.4235865564
16.7879000000002,7041.87141789118
16.8084666666677,7059.78354862082
16.8290500000003,7091.11914745207
16.8496333333344,7055.7285858465
16.8701500000008,7078.87933086585
16.8906833333338,7072.46383765017
16.9112666666679,7084.68594274585
16.9318833333336,7112.46491481484
16.952450000001,7110.72362386071
16.9730333333337,7094.09146814416
16.9935666666667,7099.66994257021
17.0141333333342,7139.29236790968
17.0347166666668,7105.37964240645
17.0552999999995,7092.60505887393
17.0758333333339,7119.81073094522
17.0963666666669,7141.04491043375
17.1168999999997,7176.99922288912
17.1373666666666,7157.10033886858
17.1579000000009,7172.96185500439
17.1784333333338,7197.24135985875
17.1989500000002,7172.58354007171
17.2195666666675,7175.48477932977
17.2401000000005,7209.30397365943
17.2606166666669,7202.69721717351
17.281200000001,7228.41723595564
17.3018833333344,7204.47499165548
17.3224666666669,7245.81805764676
17.3430333333345,7241.33337877731
17.3636333333338,7232.377598506
17.3842166666679,7214.01093319411
17.4047833333339,7261.87187747344
17.4253666666666,7223.0572169296
17.445900000001,7241.58952405224
17.4664833333336,7272.95073536505
17.4870500000011,7254.92949884969
17.5076166666672,7256.08580778439
17.5281500000001,7263.41610472398
17.5487166666676,7223.43986074443
17.5692500000006,7262.64392390971
17.5898333333333,7269.46950885192
17.6104000000007,7268.69627378933
17.6309833333334,7296.87734943273
17.6515333333344,7304.79503920628
17.6720500000008,7304.27541329014
17.6925833333338,7342.7620367803
17.7131166666666,7341.97592245905
17.733633333333,7325.23858155841
17.7541666666674,7320.02108576665
17.7747000000004,7353.65093380298
17.7952000000004,7361.40751764795
17.8157333333332,7342.36896220773
17.8362666666676,7335.95366924349
17.8568833333335,7394.16058876991
17.8774666666676,7390.31808427669
17.89805,7347.088157221
17.9186333333341,7380.26383371756
17.9392166666668,7385.28811076689
17.9598000000009,7327.71904324438
17.9803333333339,7386.74356933926
18.0008999999999,7389.12625926337
18.021483333334,7422.48557751896
18.0420666666666,7394.95600538529
18.0626333333328,7444.28431895564
18.0832666666666,7456.09763936218
18.1038333333341,7442.00582115698
18.1244166666667,7450.72404839466
18.144983333334,7429.42814959214
18.1655666666668,7458.11441518846
18.1860999999997,7475.63165034084
18.2066166666677,7494.84523212207
18.2271666666671,7483.60465644551
18.2477000000001,7451.79824601744
18.2682666666663,7485.49866148283
18.2888000000006,7480.76516413211
18.3093333333335,7482.9284219864
18.3298499999999,7497.28670983096
18.3503833333343,7536.67107975504
18.3710166666667,7507.61000980117
18.3915666666677,7480.3596706904
18.4121500000003,7545.30321423573
18.4327333333344,7553.53993936757
18.4533166666669,7524.36852205038
18.4738333333335,7534.61828285234
18.4944166666675,7557.38898408864
18.5150166666666,7544.20613873686
18.5355833333341,7505.43468633611
18.5561666666668,7583.87277827329
18.5767500000009,7582.76612461525
18.5973333333335,7558.48932479442
18.6179000000011,7597.17419900607
18.6384833333338,7531.4725046098
18.6590666666677,7598.42325428917
18.6796166666673,7634.23993439134
18.7002,7621.38514517779
18.7207333333344,7631.30240659666
18.741316666667,7625.99181928447
18.7618333333334,7628.50656823819
18.7823666666679,7618.31668443145
18.8028833333341,7615.66835700318
18.8234333333337,7629.20536266375
18.8439666666667,7691.41782829047
18.864483333333,7677.40734788768
18.8850666666671,7695.53030117206
18.9074833333344,7658.37317393908
18.928066666667,7655.1384409045
18.9486,7673.17046841334
18.9691666666675,7668.23255101199
18.9897333333335,7650.5014179693
19.0103166666676,7674.44110744834
19.0309000000003,7715.72245548143
19.0514666666677,7719.00168149768
19.0720500000004,7719.42958538282
19.0926833333327,7742.88468612568
19.1132833333334,7706.89485726911
19.1338500000009,7747.90644457697
19.1544333333335,7722.56880893952
19.1750166666676,7778.73516125201
19.1955833333336,7755.80928188631
19.2161666666677,7726.71027320034
19.2367500000004,7776.71176708592
19.2573166666666,7766.17613729645
19.277833333333,7778.44604843598
19.2984166666669,7799.45571401384
19.3190000000011,7797.71320175248
19.3395666666672,7814.44049352992
19.3601499999997,7823.77698424243
19.3807333333339,7790.74998877048
19.401333333333,7769.34862550343
19.421850000001,7783.36353050213
19.4423833333338,7783.65296396781
19.4629000000002,7834.45046190322
19.4834333333332,7862.05713109109
19.5039666666676,7816.91858308906
19.5245500000003,7830.93853917053
19.5452500000003,7836.06102272896
19.5657833333333,7869.28079799216
19.5863166666677,7858.5232952637
19.6068333333341,7854.10995521702
19.6273666666669,7855.72767017583
19.6479499999997,7844.26931875614
19.6684666666675,7852.19887047202
19.689016666667,7902.30524369441
19.7096000000011,7899.18481219008
19.7301166666674,7920.77552567458
19.7506500000004,7904.38675136508
19.7711833333334,7890.42961280505
19.7917000000012,7887.46566550053
19.8122333333341,7931.68522916327
19.8327666666672,7951.0298579877
19.853266666667,7918.68631623621
19.8738,7932.7327761187
19.894333333333,7941.87188428567
19.9148500000008,7968.49735033122
19.9353833333338,7982.09725384001
19.9559000000002,7954.18698241543
19.9764499999996,7949.67749213044
19.996983333334,7985.8824153757
20.0175000000004,8005.76963320434
20.0381333333342,8017.50080246887
20.0586666666671,7990.73213939681
20.0793500000005,8017.34825063485
20.0998666666669,8037.3773418123
20.1203999999999,8024.21828167848
20.1409666666676,8007.74804498558
20.1614833333339,8022.2325130539
20.1820166666668,8021.01094323538
20.2025499999998,8025.89924195777
20.2230666666676,8053.03536804418
20.2436500000002,8057.65120687397
20.2641999999997,8056.41984686595
20.2847166666676,8086.84194855408
20.3052500000006,8071.99090353313
20.3258333333333,8058.11305500421
20.3463500000011,8079.87433078063
20.3668833333341,8071.37318755324
20.3874166666669,8059.03689552962
20.4079333333335,8073.07211350011
20.4284499999997,8098.6343851346
20.4490833333336,8112.79563645918
20.4696,8087.15187458448
20.4901333333344,8110.14669218272
20.5106666666674,8141.09760732307
20.5311833333338,8137.17773203899
20.5517166666668,8126.06413471659
20.5723166666673,8159.01627551897
20.5928333333337,8142.98037839125
20.6133666666667,8126.84587180877
20.6338999999996,8132.47844889316
20.6544166666675,8142.66652772008
20.6749500000005,8166.10940478459
20.6954833333334,8186.66460232515
20.7159833333332,8150.20507865955
20.7365166666676,8159.17377746841
20.757033333334,8173.68793026532
20.777566666667,8213.8484402539
20.7981,8214.96478560993
20.8186666666675,8226.14371633509
20.8392999999998,8194.27835283341
20.8598500000008,8203.49576900565
20.8803833333337,8218.79438941028
20.9009000000002,8254.53674801571
20.921433333333,8229.82295038551
20.9419500000008,8214.96478560993
20.9624833333338,8224.70484623676
20.9830666666665,8260.65619339756
21.0035666666679,8234.14594823125
