0,0
0.023333333333726,-1.10095074781668
0.0455833333338518,0.447897376037441
0.0679666666665124,15.9939897684126
0.0904333333334062,-4.47728842845053
0.112850000000639,-4.06699783410926
0.135333333332541,2.94922131231911
0.157650000000453,8.83296753170116
0.180016666666507,14.7781204214607
0.20243333333374,-12.9198314096457
0.224916666667161,-12.9757059999978
0.247383333332536,-3.07846484271973
0.26984999999951,11.9918259629947
0.292133333332769,-7.88916357777692
0.314866666666012,-4.51458629779823
0.337116666666217,-5.31643907298322
0.359283333333549,-5.98768211784681
0.381550000000281,-6.80799678847122
0.403866666666675,-13.627540971387
0.426350000000095,-6.49106921948362
0.44886666666665,1.19446113634772
0.471599999999972,9.43097755256707
0.493966666666026,0.709185003703519
0.516649999999608,10.5523936620048
0.540966666666174,-0.242598278900707
0.563433333333068,-21.4817015312219
0.585966666666229,4.27493728130913
0.608649999999811,40.884722815353
0.630999999999338,18.4076920725934
0.653433333333098,7.82394952826448
0.676766666666824,2.35180331639353
0.699133333332957,8.51529693499259
0.721516666666977,21.9082063683001
0.743983333333871,-1.41813947305531
0.766500000000425,35.5725035832511
0.788933333332746,10.7766999472909
0.81139999999964,5.20870127229174
0.833866666666534,45.862975173595
0.856199999999454,-2.16440524300452
0.878583333333554,-8.6533288987098
0.901466666665858,15.2083252872824
0.924166666666046,1.71710645178036
0.946599999999727,-69.6284746539675
0.96901666666696,15.7320911268301
0.991433333332754,1.92244281854002
1.01391666666617,-2.27633776845775
1.03638333333307,4.81650416682392
1.05889999999962,-6.75206950929252
1.08178333333337,18.9504299118632
1.10416666666603,-3.50746919899199
1.12663333333292,50.6569472095591
1.14905000000015,5.28340814803282
1.17150000000044,-5.24185226197865
1.19401666666692,-5.03673414799503
1.21646666666584,-2.85462531737652
1.23873333333258,-2.5748151428908
1.26111666666668,21.2528874386666
1.28353333333391,2.48248384251791
1.30574999999946,4.68577702176246
1.32811666666695,5.41414723289079
1.35053333333275,37.2989710654846
1.37301666666617,7.17003947020313
1.39548333333306,9.24409355036678
1.41794999999996,3.7520876415138
1.44048333333312,-0.0373233975470866
1.46296666666654,-6.78935441518855
1.48544999999996,-5.03673414799503
1.50799999999965,16.7049103517448
1.53058333333391,-2.4069232949765
1.55304999999928,-3.09711779088373
1.57556666666592,-2.63077813496862
1.59804999999934,-10.3118197513404
1.62051666666623,-6.78935441518855
1.64304999999931,-0.76508710343521
1.66709999999945,23.2752256413622
1.68958333333295,14.3853493736569
1.71204999999977,-1.04497467085798
1.73451666666666,-4.94349651612097
1.75701666666669,-2.76135658861566
1.77953333333324,0.522549919351745
1.80158333333321,3.28529290519054
1.82355000000046,-32.8182358720077
1.84498333333341,-48.5267956942483
1.86756666666623,8.21632693081376
1.88881666666691,7.52501110791886
1.91024999999994,8.66478705948146
1.93169999999951,8.72084673662306
1.95320000000009,9.24409355036678
1.97475000000041,-11.3365197254236
1.99619999999997,10.888855973287
2.01769999999919,30.2270969034354
2.03921666666638,30.3583353005315
2.06071666666696,4.29361125539634
2.08214999999999,5.30208500023367
2.10364999999913,16.9107175677696
2.12514999999979,39.7017707674115
2.14659999999935,11.1505608430927
2.16809999999993,6.53487512132345
2.1896000000006,18.0708429500264
2.21114999999948,-6.24870248585809
2.23265000000014,-8.05691482937476
2.25414999999936,11.3935818799703
2.27569999999968,23.8183673606413
2.2971500000006,-13.8696345671617
2.31864999999974,-11.243371812626
2.34016666666693,-6.97577575810775
2.36171666666589,-62.867072708635
2.38315000000028,0.0373236104289003
2.40464999999951,20.504031869238
2.42615000000009,-9.90189482864201
2.44764999999931,-7.75868740893319
2.46914999999997,0.261269743654206
2.49065000000063,-8.15010811100116
2.51219999999951,77.4172154067044
2.53370000000009,16.3681488687935
2.55519999999931,22.0392780297736
2.57669999999997,43.6269895690559
2.59826666666682,21.45883774505
2.61978333333257,39.8895266561601
2.64121666666696,8.5713553314745
2.66273333333279,14.7220088283837
2.68415000000058,12.6462180592693
2.70571666666607,-37.5514640360919
2.72726666666639,33.8840086448054
2.74876666666697,2.74385272421644
2.77021666666653,35.1034335067529
2.79171666666719,59.219631228337
2.81326666666607,44.4724405141694
2.83476666666665,45.336792173084
2.85631666666697,72.05639983813
2.8778166666662,38.9883475171376
2.89931666666686,33.6589089012317
2.92078333333294,76.6430235533384
2.94223333333386,47.911733467916
2.96371666666656,19.9986028015916
2.98714999999961,77.0395494015338
3.00874999999967,57.1861556034886
3.03019999999915,97.4458272665096
3.05169999999981,15.6385584378923
3.07314999999929,33.0961934167242
3.09464999999995,86.3742854430818
3.11614999999917,40.0021827753066
3.13786666666652,52.9141498799046
3.15936666666718,54.1935770901492
3.18064999999963,48.1561236059302
3.20226666666622,29.8333975037606
3.22381666666654,120.595640658256
3.24526666666602,58.1086727157144
3.26681666666635,20.8971703577184
3.28861666666649,45.9945275349923
3.31068333333306,-42.1143948535575
3.33228333333304,129.764331914332
3.35373333333252,67.8123905785973
3.37528333333292,88.3601063925752
3.39678333333358,71.7733802382997
3.41828333333273,88.9465116305192
3.43978333333339,86.1284638164331
3.46143333333311,176.069867225944
3.48318333333359,196.422419016748
3.50469999999934,88.0952954445157
3.52626666666619,135.801373660708
3.54775000000032,90.7060427079013
3.56930000000056,142.530570816237
3.5907999999997,99.8518695130665
3.61230000000044,116.813970276178
3.63543333333257,79.5892180292115
3.65708333333373,135.896639770421
3.67863333333253,125.330559653381
3.70013333333327,138.316864079733
3.72168333333359,137.306740376644
3.74344999999916,214.311901563611
3.76485000000042,161.286803539557
3.78634999999965,191.136191871565
3.80780000000057,163.582498091115
3.82925000000013,190.636624010621
3.85073333333274,161.478080660731
3.8722333333334,171.777040511979
3.89373333333254,174.881392225113
3.91534999999913,254.17545361386
3.93689999999945,146.766077637075
3.95840000000011,217.822359045668
3.98020000000026,160.387875955675
4.00184999999998,107.834137868302
4.02408333333358,234.184309630381
4.04551666666653,205.255135965568
4.06738333333294,223.265361642231
4.08919999999961,189.19577651884
4.11074999999993,216.568408033575
4.13228333333373,226.297648878059
4.15393333333337,339.373740999878
4.17554999999996,304.519904441816
4.19781666666669,241.770653445709
4.21951666666607,253.80684721266
4.24136666666588,286.596910876312
4.26303333333356,315.164148627553
4.28478333333253,248.008879202752
4.30798333333388,258.250907947969
4.32983333333368,248.16394191419
4.35235000000032,421.773641125371
4.37386666666606,326.708446365083
4.39568333333273,287.454845892259
4.41721666666653,308.118226102807
4.43871666666719,330.731193283464
4.46056666666691,240.608908151944
4.48218333333358,355.175875424644
4.5037333333339,332.674771557949
4.52528333333278,350.370193369162
4.54678333333336,336.642248009715
4.56828333333259,369.614133514546
4.58978333333325,404.976172971016
4.61128333333391,360.261135083805
4.63278333333305,369.495657552191
4.65464999999946,330.652677000215
4.67629999999918,418.251546439375
4.69770000000044,433.208635054949
4.71995000000057,397.079378600917
4.74166666666656,394.14531121087
4.76321666666688,428.146085703278
4.78496666666592,299.673121233432
4.80676666666606,372.59648506835
4.82868333333357,458.360120982703
4.85028333333355,455.818608825107
4.87178333333278,428.185933002103
4.89328333333344,450.218759664179
4.91483333333376,435.282620575286
4.9363333333329,457.099247478165
4.95785000000009,451.23837532222
4.97940000000041,469.317929565554
5.0008833333331,465.169031939018
5.02238333333368,483.749305823148
5.04420000000043,482.1621036183
5.06580000000041,421.753736959486
5.08729999999964,494.850386038648
5.10884999999996,486.04037769526
5.13034999999918,504.45835880429
5.1519500000006,552.345468583041
5.17364999999998,515.998501362938
5.19526666666649,560.249019700809
5.21681666666681,582.568596615309
5.23838333333374,507.845660930599
5.25993333333254,553.523284714429
5.28163333333336,556.265574557145
5.30316666666716,569.607456401409
5.32471666666604,627.088276043432
5.3460666666662,583.772268786055
5.36766666666618,610.903348622733
5.38926666666616,593.246161776903
5.41081666666648,575.982922575747
5.43226666666604,610.739447725127
5.45576666666688,677.3746563842
5.47726666666602,638.723464418465
5.49876666666668,687.980132977996
5.5202666666659,621.216869863605
5.54188333333385,628.752114561037
5.56338333333307,711.71823128469
5.58504999999932,716.005662268306
5.60663333333277,675.512187402001
5.62823333333276,737.464167259223
5.64983333333274,707.932642670202
5.67286666666698,702.757003372919
5.69555000000056,702.071382381384
5.71838333333321,762.72464745607
5.74119999999932,733.955927884706
5.76393333333257,768.724463841172
5.78681666666639,774.897846688073
5.80949999999997,755.24307702718
5.83234999999914,750.594981647722
5.8550166666662,799.755221228918
5.87783333333375,761.802086849819
5.90066666666639,833.710108770966
5.92395000000046,775.969332650117
5.94448333333337,778.953610371726
5.96515000000025,791.725712342271
5.98585000000027,860.665136892519
6.00643333333291,829.217787790947
6.0269499999993,820.580858220185
6.04748333333372,835.003282123491
6.07004999999994,846.483443464371
6.09058333333293,899.92572924217
6.11113333333244,887.005009723222
6.13165000000026,884.975097244067
6.15218333333325,879.038547212613
6.17269999999963,901.746091919071
6.19321666666601,930.274051624286
6.21375000000044,952.663895479586
6.23428333333343,963.617324523142
6.25479999999973,949.64250759913
6.2753333333328,934.922422152965
6.29586666666715,940.780626762204
6.31643333333327,952.124259604574
6.33696666666618,955.837854882747
6.35748333333256,967.856705159061
6.37801666666698,993.046741390887
6.39854999999997,1026.34110302886
6.41908333333296,1041.39979836777
6.43961666666587,1022.8491160673
6.46043333333325,1062.08816781031
6.4811666666664,1035.40713868358
6.50175000000041,1063.84442953574
6.52226666666687,1078.9017491055
6.54290000000062,1051.51665457544
6.56338333333387,1088.90047035595
6.58390000000025,1110.77909002391
6.6044833333329,1102.53566411028
6.62551666666697,1071.48965766206
6.64604999999995,1092.5381554365
6.66658333333294,1099.92998504138
6.68731666666601,1091.50176036561
6.70791666666671,1149.81640344106
6.72853333333385,1127.91795499652
6.74916666666624,1220.27106447494
6.76978333333338,1200.64653340719
6.79036666666603,1141.745872715
6.81124999999968,1218.62969017456
6.83176666666606,1247.17625543936
6.85235000000015,1226.43551462715
6.8729833333339,1270.90569959676
6.89350000000028,1230.3081384134
6.91403333333327,1245.52811943915
6.93456666666617,1274.07916005365
6.95564999999998,1282.88223057779
6.97623333333255,1268.82112038403
6.99678333333359,1334.98955988048
7.01739999999929,1288.37880813506
7.03798333333338,1331.21460701687
7.05849999999976,1327.0532438645
7.07901666666622,1326.61896835741
7.09960000000031,1345.181363201
7.12023333333254,1359.98198756715
7.14086666666637,1413.01044993344
7.16148333333359,1378.22472344302
7.18206666666624,1396.07954890788
7.20269999999998,1436.11815750506
7.22333333333373,1447.3068893353
7.24401666666714,1414.81714766732
7.26463333333292,1457.69859359542
7.28528333333328,1509.03647172317
7.30591666666695,1480.94152754303
7.3267499999995,1437.46630461407
7.34741666666638,1507.57951272098
7.36805000000013,1574.46287659227
7.38861666666617,1548.02462222593
7.40920000000026,1600.93687772882
7.42973333333325,1565.30637398383
7.45024999999963,1623.81010994251
7.47078333333254,1634.58198216753
7.4913666666667,1632.73753720968
7.51188333333309,1670.06279319283
7.53241666666607,1651.82992488743
7.55295000000042,1640.43015311555
7.57348333333341,1658.34270302752
7.5940166666664,1682.84161519629
7.61454999999931,1734.69443641186
7.6350500000006,1731.53274946985
7.65558333333359,1707.50526948219
7.6761166666665,1718.39164951185
7.69663333333296,1732.01906342662
7.71721666666696,1745.9185943405
7.73774999999995,1763.4384712954
7.75826666666633,1824.11890029256
7.77879999999932,1825.25341682054
7.79933333333375,1797.02302350028
7.81985000000013,1807.00172832815
7.84038333333312,1831.49677610457
7.86091666666603,1877.15769700695
7.88145000000045,1883.94853541173
7.90198333333336,1866.5005974905
7.92259999999915,1892.59029790973
7.94311666666697,1946.46566615476
7.96374999999935,1915.80765683639
7.9842833333337,1924.99249177432
8.00495000000058,1912.40728348538
8.02553333333323,2001.09232188516
8.04611666666588,1979.38893127865
8.06669999999997,1960.82875645766
8.08726666666601,2014.25562242296
8.10780000000044,1997.52073442094
8.12833333333343,1999.97757469499
8.14884999999981,2033.98669228083
8.16950000000008,2015.11888295541
8.19003333333307,2041.70714256374
8.21053333333293,2058.83673563428
8.23106666666591,2106.45243505973
8.25160000000026,2139.9597288473
8.27211666666664,2103.69791715368
8.29264999999963,2116.75997966019
8.31318333333254,2127.49707729979
8.33370000000044,2194.69287370438
8.35438333333385,2206.97051040215
8.37491666666684,2174.13377100869
8.39543333333322,2186.32072862633
8.41596666666621,2193.25763338848
8.43649999999919,2227.79058312506
8.45703333333354,2262.82318674009
8.47761666666619,2248.30871976373
8.49813333333401,2279.03521934191
8.51865000000047,2262.03209612565
8.53918333333338,2256.12830724603
8.55971666666637,2264.6694368473
8.58023333333275,2302.55321683091
8.6008666666665,2328.44642961173
8.62139999999949,2300.40448735609
8.64191666666587,2316.31118343901
8.66249999999996,2320.77944577266
8.68303333333294,2333.29617364513
8.70354999999933,2361.31909710517
8.72408333333375,2417.51152979459
8.74468333333293,2359.44537984807
8.76519999999931,2441.0727263878
8.78573333333374,2441.994174257
8.80625000000012,2420.80661568218
8.8267666666665,2426.83389216039
8.84729999999949,2433.94943640749
8.86783333333248,2492.00065520316
8.8883500000003,2494.51377085758
8.9088833333332,2466.84082032697
8.92939999999967,2474.98060133321
8.94993333333257,2492.7107857071
8.97061666666606,2539.80563383859
8.99129999999947,2555.72662217162
9.01193333333322,2525.62508559865
9.03246666666621,2533.0962732113
9.05314999999962,2602.16775010778
9.07378333333337,2590.0136295343
9.09439999999915,2577.49464480006
9.11508333333256,2604.64018499603
9.13574999999952,2634.18711771166
9.15659999999996,2659.21540781196
9.17773333333343,2588.87706968141
9.19836666666718,2660.02798365889
9.21899999999948,2655.18204221781
9.23966666666637,2655.65807403255
9.26030000000011,2684.22729031017
9.28098333333352,2618.10216406633
9.30166666666693,2661.2890770136
9.32236666666695,2754.55172844048
9.3431000000001,2673.32371858146
9.36378333333359,2726.26892187624
9.38443333333386,2764.73734211146
9.40501666666651,2760.58151800676
9.42565000000026,2767.78472562661
9.44628333333257,2806.84258417208
9.4669166666664,2798.76618591764
9.48758333333328,2809.59427219802
9.50821666666695,2834.61312493495
9.52884999999934,2838.03875417527
9.54948333333308,2884.59162939804
9.57016666666649,2855.85789363365
9.59078333333371,2869.47115760633
9.61148333333373,2902.45092459493
9.63206666666638,2946.33279930453
9.65265000000047,2924.35507842956
9.67319999999998,2895.62088578203
9.69378333333255,2981.23347269202
9.71446666666604,2964.06808108025
9.73698333333251,3007.68681687115
9.75751666666694,2974.35015157705
9.77809999999967,3027.87142252211
9.79861666666605,2996.17222066309
9.81920000000014,3038.07618508393
9.83978333333279,3083.35848815177
9.86036666666688,3061.84011493493
9.88093333333292,3057.10423959813
9.90148333333387,3113.68167193643
9.92216666666584,3121.13413576302
9.94274999999993,3103.32842898307
9.96324999999978,3111.1293518163
9.98378333333277,3103.02857912752
10.0043666666669,3124.59279781477
10.0249333333329,3185.1894634431
10.0455166666669,3147.97915656256
10.06605,3182.63945626532
10.0873333333339,3212.96989927306
10.1080166666659,3237.50115630503
10.1285999999999,3229.24252197501
10.1491333333329,3259.48314380246
10.1697500000001,3230.03734450808
10.1904000000004,3293.59841296134
10.2109833333331,3268.97936927655
10.2316666666666,3278.85899597028
10.2523999999996,3245.12670193473
10.2732666666667,3262.27833550665
10.2939500000002,3289.18544065293
10.3145666666659,3355.9127161861
10.3351999999996,3315.58412736372
10.3558333333334,3379.64164075822
10.3764666666657,3327.48906091397
10.3974000000004,3368.60947739718
10.4179833333331,3410.272751775
10.438816666667,3376.60828608716
10.4593333333334,3403.33135365802
10.4799666666657,3382.20701718578
10.500616666666,3429.5966392349
10.5212499999998,3406.2514972276
10.541866666667,3450.52693774356
10.5625666666669,3461.19143463292
10.5831666666662,3458.78486662188
10.6037999999999,3516.97984189031
10.6244333333338,3520.07898435238
10.6456833333331,3533.03458409625
10.6662500000006,3523.72315264975
10.6868333333333,3504.3109974034
10.7073666666662,3527.27337285693
10.7279333333338,3553.2709814139
10.7484666666667,3550.25239775768
10.7690499999993,3583.24323747256
10.7895833333337,3596.48628598236
10.8101166666666,3647.25122686517
10.8307500000005,3599.10576898474
10.8512500000002,3620.0021196212
10.8717833333332,3675.82507336274
10.8923166666662,3640.96541308864
10.9128333333325,3653.18431859367
10.9334666666664,3727.70648868496
10.9541000000001,3672.61859096642
10.9747333333338,3746.99973765825
10.9953499999996,3706.39815706783
11.0159833333334,3762.17030089343
11.0366166666671,3724.30963413211
11.0572499999995,3781.4325403497
11.0779499999995,3737.80852817053
11.0985666666667,3745.1472323664
11.1192000000004,3758.58979264805
11.1398166666662,3795.683191665
11.1611166666667,3784.92573953248
11.1816333333331,3796.6832339488
11.2024166666659,3814.60989146385
11.2230499999996,3827.12420002508
11.2437333333331,3872.69868298054
11.264266666666,3904.34336973123
11.2849999999992,3851.65330446782
11.3056166666663,3878.26597440732
11.3261499999993,3882.75699898245
11.3467833333331,3926.68127339591
11.3674333333334,3907.86891094918
11.3880499999991,3938.11734080827
11.408683333333,3936.31210914636
11.4293000000001,3947.32154275021
11.4499333333338,3980.52999182555
11.4705666666662,3975.80007028896
11.4912999999993,4025.60106408763
11.5121333333332,3964.19540937942
11.532766666667,4006.64027388454
11.5532833333334,4082.04916220254
11.5739166666657,4042.9551825317
11.5945499999995,4107.93917025135
11.6152166666664,4033.13166190011
11.6358500000001,4067.23124308152
11.6565000000005,4100.84587023454
11.6771333333328,4080.90009550113
11.6978166666662,4136.81088865024
11.7185499999993,4171.06817735902
11.739316666667,4181.49003758061
11.7600500000001,4165.88110111995
11.7807166666669,4146.22872476757
11.8013499999993,4166.6571366629
11.8220833333325,4260.8138527396
11.8427666666659,4147.1782886061
11.8633000000003,4196.71101572342
11.883916666666,4274.35560169378
11.9045499999998,4230.64291555126
11.9251833333336,4258.48806625296
11.9458333333339,4253.87472137702
11.9665166666659,4257.95146366604
11.9871999999993,4311.0733479968
12.0078166666665,4282.89628748384
12.0284333333338,4342.16179045845
12.0492666666662,4347.2729715628
12.0699999999993,4345.35127914842
12.0905333333337,4385.97172266614
12.111166666666,4383.63749804984
12.1316833333339,4356.56306298605
12.1522666666665,4428.79167246004
12.17295,4388.74469629281
12.1936333333334,4446.29294332594
12.2143000000003,4423.46969062674
12.2349499999992,4406.13904636782
12.2557166666668,4436.58057561004
12.2766166666669,4474.59236996685
12.2971833333331,4478.40202222707
12.3177666666671,4516.76988873403
12.3383000000001,4532.7174322183
12.3588666666662,4513.90494179794
12.3794500000003,4500.52700059868
12.3999333333336,4515.16982865735
12.4206500000001,4534.95617848505
12.441183333333,4542.64837498
12.4617666666671,4540.40699596159
12.4823999999995,4579.77997611896
12.5030166666667,4628.88685171111
12.5235666666662,4591.55163550104
12.5441500000003,4635.66701107831
12.5647166666664,4659.47206282789
12.5852333333328,4640.74726305189
12.6057666666672,4663.69539160994
12.6265999999997,4712.86323687518
12.6471833333338,4701.63710153475
12.6677999999995,4703.66634139783
12.6887499999993,4631.49960069323
12.7094166666662,4719.2319933882
12.7300999999997,4710.02614888945
12.7507333333334,4720.76756071074
12.7714166666668,4723.91660068184
12.7921000000003,4731.94967251437
12.8127500000006,4766.69362184202
12.8333666666664,4737.95208348923
12.8540000000001,4807.14504433418
12.8746166666659,4766.53896729161
12.8952499999996,4832.55963965357
12.9159333333331,4790.51534747831
12.9365999999999,4749.27930742023
12.9572333333337,4822.25717251199
12.9778666666661,4855.64289270322
12.9984999999998,4857.72046444394
13.0190833333339,4868.66800439741
13.0396000000003,4878.88652590952
13.0602333333325,4899.9634319682
13.0808666666664,4895.54544847591
13.1015000000001,4940.93209798741
13.1221333333338,4922.216983253
13.1427666666662,4979.56209585868
13.1634,4941.80571957162
13.1840166666671,5010.95220099759
13.2046333333329,4975.12997727438
13.2252666666667,5035.56078063563
13.2459000000004,4985.71613701913
13.2665333333328,5060.26225341571
13.2871666666665,5014.68578226865
13.3077333333326,5034.27176200549
13.3282666666669,5035.64135273148
13.3488999999993,5103.34911888241
13.3695333333331,5055.12862143507
13.3901500000003,5108.88738267377
13.4107999999991,5077.75489785618
13.431433333333,5133.33611800121
13.4519666666659,5092.16472484254
13.4726166666662,5101.3141703212
13.49325,5149.79548998275
13.5138833333337,5123.97848395667
13.534516666666,5160.42188242516
13.5551000000001,5146.88547457756
13.5757166666659,5176.0028673019
13.5963499999996,5172.83433299536
13.6168833333326,5230.3530358148
13.6375166666664,5190.25966368284
13.6581333333335,5265.10016715928
13.6787666666659,5221.56030061542
13.6993166666669,5223.67445509892
13.7198833333329,5299.06807265288
13.7405166666667,5310.90618072373
13.7611333333339,5265.93470056557
13.7816666666669,5309.6037802043
13.8022833333326,5290.55955161358
13.8228666666667,5320.19855472996
13.8433999999996,5307.33570138613
13.8640833333331,5358.4316188989
13.8847000000003,5368.00369823721
13.9052833333329,5376.65602241097
13.9258166666659,5372.71016154297
13.9463333333337,5347.05652462728
13.966966666666,5398.12410930032
13.9876166666664,5379.24546045927
14.0082500000001,5401.87229934526
14.0288833333325,5402.08532916009
14.0494833333331,5398.42218219702
14.0700166666661,5466.52458982926
14.0905500000004,5473.54196346177
14.1112333333339,5451.48198908463
14.1317500000003,5444.14515953106
14.1522833333333,5451.91129814409
14.1729166666669,5508.65554369549
14.1934833333331,5514.46115202073
14.2141166666669,5472.98201938842
14.2347499999992,5505.27852992984
14.2552833333335,5549.14192989597
14.2759666666669,5563.14447245142
14.2965499999997,5573.02096522419
14.3171833333334,5533.21288700527
14.3378000000006,5584.75226465962
14.3584833333325,5572.1463378514
14.3790999999998,5585.54094197838
14.3996833333338,5611.53277754546
14.4203166666662,5604.62960705975
14.4409000000003,5617.51848605727
14.461516666666,5678.47861051881
14.4821000000001,5642.88639559823
14.5026333333331,5702.29989205224
14.5232666666668,5661.16804950239
14.5439333333337,5724.59667955199
14.5644833333332,5688.75342501277
14.5850166666662,5737.00672502977
14.6056333333334,5709.35158076403
14.6261499999998,5720.972192161
14.6467833333336,5775.82209137717
14.6674666666669,5746.79005239491
14.6880999999993,5746.07151244288
14.7087166666665,5768.24784388825
14.7293500000003,5759.24229864288
14.7500333333338,5818.31892959112
14.7705666666667,5837.82664799266
14.7911833333339,5796.15355270764
14.8117666666665,5821.95232409679
14.8323499999992,5826.36052268943
14.8529999999995,5826.22414213991
14.873683333333,5874.4065473013
14.8942500000004,5847.76199031562
14.9148666666662,5865.0708930893
14.9354500000003,5864.93370338026
14.9560833333325,5866.80887839947
14.9766500000001,5875.04771809688
14.9972833333339,5946.88888278765
15.0179166666662,5907.14059738971
15.03855,5973.15056409359
15.0591666666672,5934.62935022702
15.0797499999998,5925.34590368493
15.1002833333328,5939.34539522965
15.1209166666665,5989.34980040761
15.1414333333329,5954.20928434677
15.1620833333332,6026.55469260685
15.1826166666662,6006.47703522693
15.2032333333334,5984.97019003944
15.2238499999992,6019.80846826281
15.2445833333337,6074.4461672673
15.2653666666666,6025.85163631113
15.2860000000003,6103.12255883668
15.3066333333325,6053.23282932133
15.3272666666664,6108.76852309458
15.3478833333336,6066.09404756559
15.3685166666659,6127.35392171475
15.3891999999993,6041.71219285072
15.409833333333,6096.6286098058
15.4305166666665,6145.32398212443
15.4511500000003,6116.8901703461
15.4717333333329,6130.49631265556
15.492466666666,6183.52496834715
15.5130833333332,6158.41548661671
15.533716666667,6202.99833433283
15.5543333333328,6159.32426346364
15.5748666666672,6221.4673551664
15.5955499999992,6253.9505030852
15.6161833333329,6214.7584713577
15.6371166666662,6241.29630938015
15.6577999999996,6234.27676106714
15.6784333333334,6242.36200251146
15.6990500000006,6297.72543321596
15.7196833333329,6258.51395241467
15.7402833333336,6271.49347513906
15.7611166666661,6281.08665907984
15.7817499999998,6309.46142602522
15.8022499999997,6361.99268768813
15.8228833333334,6317.19912672608
15.8435166666672,6369.29883840497
15.8640999999998,6353.6598169519
15.884716666667,6327.59575339205
15.9052999999996,6366.13842077602
15.9259333333334,6345.23911878945
15.9465166666661,6407.14466614622
15.9671333333332,6428.54198895921
15.9877166666659,6422.76279297013
16.0083499999996,6398.35721829932
16.029,6450.20953710383
16.0496333333337,6417.9838669117
16.0701999999998,6431.4335020722
16.0907166666662,6440.21557799067
16.11135,6497.43705598516
16.1319666666672,6453.41083032587
16.1525999999995,6512.91900637356
16.1732833333329,6549.82976290671
16.1939166666667,6492.90530785246
16.2144499999997,6514.38336597703
16.2350666666669,6517.36359225335
16.2556499999995,6546.63171282925
16.2762833333333,6547.13923548329
16.2967999999997,6596.09673768678
16.3174499999999,6573.1261811457
16.3381333333334,6620.27725775116
16.3587166666661,6583.07019049869
16.3793333333332,6636.87616560514
16.3998999999993,6629.47083151972
16.4205333333331,6623.04937782224
16.4410666666661,6658.62629934763
16.4616999999998,6710.24923537183
16.482316666667,6674.3395610395
16.5029499999993,6716.86104971596
16.5235833333331,6692.84060782686
16.5442166666668,6734.54269471535
16.5648499999991,6699.85045468016
16.5854666666664,6726.34791023512
16.6060166666659,6727.5477786708
16.6266,6734.12487784694
16.6472166666672,6764.17115596896
16.6677833333332,6752.16750609913
16.688416666667,6775.14570391618
16.709099999999,6775.82893970693
16.7297833333339,6838.78151839922
16.7503999999997,6852.380898967
16.7709833333338,6845.09959027355
16.7916166666661,6812.09005003284
16.8122499999998,6875.87444031518
16.8329333333332,6883.24352142793
16.8535500000004,6850.99842171977
16.8741333333331,6878.8103983979
16.8947833333334,6923.06233334875
16.9154666666669,6942.71250149144
16.9359833333332,6894.84794482954
16.956616666667,6941.52643520431
16.9771333333334,6979.75025956685
16.9977666666672,6929.78520135609
17.0183833333329,6988.75747824512
17.0390666666664,6971.51354549007
17.0597000000001,6945.0313428693
17.0803333333339,6978.232190913
17.1010166666659,6974.05931709683
17.1216999999993,7023.65520253662
17.1423166666666,7057.25840103348
17.1628999999991,7036.22251574649
17.1835499999995,7023.76437956145
17.2042333333329,7028.40608769862
17.2248000000005,7055.61253513312
17.2454333333328,7097.76718183766
17.2660999999996,7100.69395646029
17.2867333333334,7065.43900776441
17.3072666666664,7130.31134548924
17.3277833333328,7112.58016562092
17.3484166666665,7100.85966210019
17.3690500000003,7112.9675216262
17.3896833333326,7108.09957024932
17.4102999999998,7135.3069086224
17.4308833333339,7155.71728016073
17.4515166666662,7135.08480259393
17.4721999999997,7193.36780282239
17.4928999999996,7206.88312996011
17.5135166666668,7161.56849130055
17.5341500000006,7222.84581799553
17.5547166666667,7197.2905408933
17.5753500000005,7200.54259193851
17.5959666666662,7213.67937400991
17.6165500000003,7206.0972430677
17.6371833333326,7261.33853685203
17.6578166666664,7227.06782410571
17.6784500000001,7274.99512848172
17.6990166666662,7302.1093014706
17.71965,7253.47485371232
17.7401833333329,7255.68025727824
17.7608666666664,7270.68540794066
17.7815000000001,7282.71435128487
17.8021333333339,7302.62197107717
17.8228166666659,7350.76359273625
17.8434333333331,7330.82362177909
17.8639999999991,7342.16132603591
17.8845833333332,7390.65353432851
17.9052666666667,7364.6082916629
17.9259500000001,7340.95791059894
17.9464833333331,7364.03323996063
17.9671000000003,7432.99601069876
17.9877333333326,7386.38238729217
18.008416666666,7445.32733512443
18.0290499999998,7451.90967013619
18.0495666666662,7427.41964946589
18.0701166666672,7421.49996780909
18.0906999999998,7435.90224862707
18.1113333333336,7488.84671983488
18.1319833333339,7462.29175226544
18.1525666666665,7492.07106183704
18.1732499999999,7517.80541223335
18.1938833333338,7490.66388085498
18.2144666666663,7532.83448390704
18.2350833333335,7513.15634149456
18.2557166666659,7570.41050959503
18.2762500000003,7548.84448096216
18.2968833333325,7455.69897091761
18.3174999999998,7437.53030583567
18.3381333333336,7413.44156226009
18.3587333333327,7416.0493124387
18.3793666666665,7466.26229327624
18.3999333333325,7474.50301182897
18.4205499999998,7479.18321539113
18.4410833333327,7452.43421169262
18.4615999999991,7458.2069456126
18.4822333333329,7526.52396390761
18.5028666666667,7489.25700241117
18.5234499999994,7449.17108048655
18.5440666666665,7516.80470034296
18.5646500000006,7514.39184815431
18.5852833333329,7571.00398719283
18.6059666666664,7569.9357662676
18.6266000000001,7546.00590589862
18.6473000000001,7575.21922658081
18.6678166666665,7584.07413057208
18.6884500000003,7564.59727577225
18.7090333333329,7590.67853382555
18.7296333333335,7585.62051021582
18.7502166666662,7592.34556273453
18.7708999999997,7641.83493832753
18.7915333333334,7645.19559748237
18.8121666666672,7602.77412607625
18.8328333333325,7609.51683971416
18.8534166666667,7639.25560312313
18.8740500000004,7641.65495171327
18.8945833333334,7663.46935270318
18.9152500000003,7716.53518936571
18.9358999999992,7661.24251491338
18.9565333333329,7681.43210821893
18.9771666666666,7711.56089594908
18.9977499999993,7744.26630678071
19.01835,7720.78453117484
19.0390333333334,7731.72409777039
19.0596666666671,7725.52276479986
19.0802999999995,7758.35928031699
19.1009333333332,7740.97621769839
19.1215500000004,7785.47127680943
19.1421833333327,7762.63587752044
19.1628166666665,7826.07336250933
19.1835,7849.44124984088
19.2040833333325,7797.68691450817
19.224766666666,7819.22718401509
19.2453000000005,7818.42584767855
19.2659333333328,7853.4679592695
19.2865666666665,7826.32020540062
19.3072166666669,7877.36940639995
19.3277999999995,7857.62116246062
19.3484833333329,7910.35365633521
19.3691666666663,7931.01436965018
19.3898000000001,7897.23981270094
19.4103666666662,7942.24858978208
19.431,7891.00435013831
19.4516833333334,7903.54366680833
19.4723666666669,7950.10516815001
19.4929499999995,7912.66691625347
19.5134666666659,7978.71987017933
19.5341166666662,7951.86633557792
19.5546499999992,7952.36961334444
19.5752166666667,8008.6023413704
19.5957833333328,7973.16362309118
19.6164666666662,8022.45019439904
19.6371,8045.8292628511
19.6577333333337,8000.23162484541
19.6782999999998,8020.41564601815
19.6989333333335,8068.20346080243
19.7196166666669,8033.14196391446
19.7403000000004,8028.49398913809
19.7609833333339,8045.57399936284
19.7815999999996,8084.2961913602
19.8021833333337,8059.69225126886
19.8228333333325,8099.39904753077
19.8434666666664,8074.22558605014
19.8642499999992,8132.68387025963
19.8849166666661,8069.86860063634
19.9054333333339,8116.40733939972
19.9260666666662,8178.24028241287
19.9466000000006,8123.11973217865
19.9671166666669,8138.95984975609
19.9878000000004,8213.89362433213
20.0083833333331,8126.22008343401
20.0290666666665,8209.31181253832
20.0497000000003,8219.13391197168
20.0703166666661,8161.26558200821
20.0909499999997,8228.51139369305
20.1115500000004,8227.33027180407
20.1322333333338,8254.61604412998
20.1528499999996,8203.62174276342
20.1734166666672,8222.14897866914
20.1940499999995,8262.72505889862
20.2146833333332,8248.95228975629
20.2353666666667,8254.08897641433
20.2560333333335,8316.5778808967
20.2766666666658,8319.3720211573
20.2972999999997,8275.40315288078
20.3179833333331,8290.62286028896
20.3386166666668,8313.85141811153
20.3593000000002,8308.20261148034
20.3799666666671,8323.03281944948
20.400616666666,8369.67047613594
20.4212999999995,8363.03541639123
20.4418333333339,8345.17432842304
20.4624499999997,8346.31009920374
20.4830666666668,8365.58141149635
20.5037500000003,8357.54479972987
20.5244333333337,8401.66665522152
20.5451166666672,8407.12699364235
20.5657499999995,8448.19148140835
20.5863666666667,8391.09599319951
20.6069499999993,8409.69020489426
20.6276333333328,8458.85485365912
20.6483166666662,8426.91672532204
20.6689999999997,8416.9130666596
20.6896999999996,8467.90177131954
20.7103166666668,8455.6608112258
20.7308999999995,8468.99096564394
20.7515166666667,8470.69319480187
20.7720999999994,8531.23918429172
20.7927666666662,8512.36539722188
20.8134,8487.19370251798
20.8340333333323,8519.08508730443
20.8547166666671,8567.76839628984
20.8752500000001,8525.67433820799
20.8958666666659,8528.00962324247
20.91645,8549.47830064502
20.9371333333334,8556.7192059037
20.9577666666672,8546.37750661292
20.9784166666661,8578.4208914683
20.9990333333332,8572.33162813215
