0,0
0.0205166666663814,26.4780333823793
0.0410499999993696,-23.8845244969434
0.0615833333337967,3.23683530485316
0.082116666666785,-26.1134799255506
0.102649999999773,22.5802079798481
0.124866666666765,5.30925046645087
0.145399999999754,-9.31315004272679
0.165916666667574,9.78938996793397
0.186450000000562,-4.71366702018682
0.207033333333211,-66.1969194031943
0.227633333333745,30.6940099749727
0.248166666666734,14.7173820911098
0.268700000001161,-17.9307818583251
0.289216666666103,10.9747332867463
0.30975000000053,8.8264565969174
0.330283333333519,-2.53286277454347
0.3507999999999,1.10959174651101
0.371349999999335,19.9829469843813
0.391883333333762,-28.8940044226302
0.412500000001064,12.1788174085749
0.433083333333713,-18.6683813920681
0.453666666666361,34.5780832335996
0.474183333334182,-18.0783084165001
0.49471666666717,4.0509201308708
0.515283333333212,-6.11786810918323
0.535800000001032,10.1783070770024
0.55633333333402,-5.50818622820684
0.576866666667009,43.2279611953669
0.59738333333339,-14.0939234763311
0.617916666666218,41.4970706506306
0.638450000000645,-2.60680024427397
0.658983333333634,17.6462931580177
0.679516666666622,13.1607730827335
0.70004999999961,23.9163437229574
0.720566666667271,50.0070358516856
0.741100000000419,1.97890338333647
0.761683333332908,30.3038716703431
0.782200000000888,10.567247302123
0.80276666666693,49.1685828974981
0.823299999999918,55.3383827897312
0.843816666666299,14.661782535737
0.864350000000727,40.7527423844819
0.884883333333715,11.5304368891535
0.905400000000096,58.9199071682589
0.925933333332925,42.5764970445966
0.946466666667352,29.7465715811576
0.96700000000034,47.175359412483
0.987533333333328,55.9911187566545
1.00804999999971,59.5916612739942
1.02858333333414,56.5879629098163
1.04911666666712,103.00976546675
1.06963333333351,40.3247919655909
1.09014999999989,83.4837195733505
1.11068333333288,64.5573160903689
1.1312000000007,82.547333993489
1.15173333333368,53.0822828127549
1.17226666666667,111.318016866544
1.19283333333415,50.4915243083235
1.21336666666714,66.406398356464
1.23390000000013,106.50471254458
1.25443333333296,102.95341064593
1.27496666666739,92.7236624648879
1.29555000000003,111.35563474802
1.31606666666642,132.550039951042
1.33660000000084,99.9297469637686
1.35713333333383,121.802962198329
1.37763333333361,98.2401087871538
1.39816666666659,140.348000031162
1.41900000000058,141.859575707487
1.43953333333357,140.291322735133
1.46010000000105,107.670109830495
1.48063333333404,131.587740014141
1.50116666666687,111.581346578314
1.52168333333341,112.070415587254
1.54223333333285,154.457014696834
1.56275000000067,126.608683676132
1.58328333333365,191.214914414787
1.6038666666663,162.906716008462
1.62438333333412,210.779114478938
1.64491666666711,150.425465645111
1.66543333333349,187.674442685079
1.68594999999987,163.66507017907
1.7064833333343,156.161232882186
1.72711666666661,206.006616618304
1.74763333333299,166.244131941844
1.76816666666726,244.342000865495
1.78870000000041,195.271679827445
1.80921666666679,229.731615782243
1.82981666666604,212.517168137449
1.85035000000031,264.932371934395
1.87086666666669,252.274405606184
1.89139999999968,237.377866866512
1.91188333333285,247.452354978264
1.93240000000083,241.079637957792
1.95293333333382,296.781573491201
1.97345000000004,232.969162813762
1.99396666666658,277.962154103541
2.01450000000101,260.735986364234
2.035033333334,327.328375025723
2.05555000000038,303.228163566356
2.07608333333336,294.711494115691
2.09659999999975,297.362087138852
2.11715000000062,296.820272798895
2.13768333333361,349.839846425525
2.15819999999999,333.435425807923
2.17873333333298,369.689160427485
2.19926666666741,322.839244353904
2.21978333333379,359.717903940484
2.24031666666677,331.100848132131
2.26083333333316,397.41468463712
2.28134999999954,374.2888776073
2.30188333333396,367.36117452246
2.32241666666695,374.465101288833
2.34293333333333,373.858128585844
2.36351666666726,421.431049266294
2.38405000000041,476.011079860627
2.4045833333334,380.518328033545
2.42511666666623,457.225067897778
2.44563333333421,433.610674040266
2.46616666666704,430.627827322229
2.48670000000002,407.876558421016
2.50721666666641,442.8048114582
2.52775000000083,431.180835294889
2.54826666666721,477.323746643791
2.56883333333326,490.783819108841
2.5894166666659,454.171977828931
2.60995000000033,461.033514011691
2.63046666666671,528.824471181145
2.6509999999997,495.210184763748
2.67158333333379,499.73934149188
2.69210000000017,510.666108062247
2.71264999999977,523.814377363586
2.73318333333419,560.214692640426
2.75370000000057,503.273063001793
2.77423333333356,536.868681168554
2.79476666666639,520.950327339579
2.81538333333369,591.735976783475
2.83590000000007,572.837284832398
2.8564333333329,576.572269445108
2.87694999999944,586.455019289692
2.89748333333387,612.496395403121
2.9180166666667,652.805948416283
2.93853333333324,595.542527135187
2.95906666666607,634.239636258474
2.9796000000005,623.613237051317
3.00013333333348,695.956238059714
3.02066666666647,661.658778730864
3.0412000000009,665.117292550235
3.06171666666728,671.15872692258
3.08225000000011,692.913076382054
3.1027833333331,745.026775801296
3.12330000000108,700.647123195857
3.1438166666673,730.082935601141
3.16433333333384,723.408566229826
3.18486666666683,776.078965219963
3.20539999999966,763.619621060896
3.22591666666764,762.975458776853
3.24645000000046,824.497723146536
3.26698333333345,782.765618104485
3.28751666666644,805.898664823213
3.30805000000087,795.929736460353
3.32858333333386,857.82732546688
3.34910000000024,838.35567483081
3.36963333333323,840.016398018402
3.39016666666605,816.176069061553
3.4110499999997,870.023955501833
3.43155000000108,861.47549070262
3.45208333333391,938.731322670912
3.47261666666689,911.340285366347
3.49313333333328,947.573729749674
3.51366666666626,903.650534771664
3.53420000000069,931.307806657129
3.55471666666707,933.248200411799
3.57526666666667,999.975628502562
3.59585000000076,981.988961330626
3.61636666666714,987.104535550673
3.63690000000012,997.929197430795
3.65748333333405,1046.96064331533
3.67800000000059,1063.21240730998
3.69853333333342,1030.77078788311
3.71904999999996,1051.25865439231
3.73956666666635,1061.88555030279
3.76010000000061,1103.58149770735
3.78061666666715,1131.85687431654
3.80114999999998,1096.40598000895
3.82168333333297,1109.38454296582
3.84220000000079,1130.84571780163
3.86275000000039,1153.0611697577
3.88328333333337,1167.14722598451
3.90380000000119,1232.83211020969
3.92433333333418,1233.16699698162
3.94501666666759,1219.29471802453
3.96553333333397,1234.50671547945
3.98606666666696,1261.78489292459
4.00658333333334,1319.80612761213
4.02709999999972,1303.17607012801
4.04763333333415,1304.28192205241
4.0682166666668,1278.22003665541
4.08873333333318,1377.25080838459
4.10926666666761,1393.45264139312
4.1298000000006,1411.48400682193
4.15031666666698,1389.58706650417
4.17086666666641,1407.42433511074
4.19140000000084,1429.68022921524
4.21191666666722,1489.07697724365
4.23245000000021,1501.99825774094
4.2529833333332,1493.30379669356
4.27355000000068,1508.86434711797
4.29411666666672,1527.1235929329
4.31470000000081,1552.88496740743
4.33521666666719,1560.86088060261
4.35575000000018,1636.45598262181
4.37628333333317,1623.69329970791
4.39679999999955,1627.15431850003
4.41733333333398,1634.98392053153
4.43786666666696,1670.64382731872
4.45839999999995,1726.6671321808
4.47893333333278,1699.99804778323
4.49946666666721,1715.57785343085
4.52003333333341,1707.02717325447
4.54056666666624,1740.11491808223
4.56110000000066,1752.21259625543
4.58161666666705,1823.17056930796
4.60213333333343,1829.99090345449
4.62264999999997,1813.45349051452
4.6431833333328,1838.26306426977
4.66371666666722,1854.78972079373
4.68423333333361,1919.23388106028
4.70476666666659,1887.15452185359
4.72535000000068,1908.23449161539
4.74588333333367,1923.07811600298
4.76641666666666,1994.79498506317
4.78695000000108,1977.13588850024
4.80746666666731,1981.46484522861
4.82800000000029,1997.12804481214
4.84853333333328,2029.47506377977
4.86904999999966,2041.69074812034
4.88956666666764,2105.91928102182
4.91010000000047,2116.10640241148
4.93061666666685,2098.98375642787
4.95114999999984,2119.88911995104
4.97168333333427,2154.05803940322
4.99220000000065,2198.67101031746
5.01273333333364,2161.97847322998
5.03333333333289,2185.1776852848
5.0539999999997,2197.17037724593
5.07453333333412,2263.39529378249
5.09506666666711,2226.18314843568
5.11558333333349,2239.11043979282
5.13611666666648,2255.14242151959
5.15665000000091,2310.07844291374
5.17715000000068,2319.9032721862
5.19768333333367,2296.82645888663
5.21821666666666,2318.66447846025
5.23873333333288,2338.9099103507
5.25926666666731,2354.02257997114
5.27978333333385,2393.25039470995
5.30031666666684,2440.12079478548
5.32086666666627,2408.62282894629
5.34138333333409,2419.2926538566
5.36191666666708,2434.83376688887
5.38245000000007,2506.20546421425
5.40296666666789,2518.58437096569
5.42349999999944,2479.41054435122
5.44408333333353,2499.86221055361
5.4645833333333,2517.17155773074
5.48511666666629,2582.75315212955
5.50565000000072,2564.94129526745
5.5261666666671,2571.73148473723
5.54670000000009,2581.32641803486
5.56723333333292,2619.95784698809
5.5877500000009,2609.61728075529
5.60845000000091,2677.08314710228
5.62898333333374,2664.53996382742
5.64950000000012,2657.87488776972
5.67003333333311,2674.77295043157
5.6905666666661,2719.36712077669
5.71108333333392,2710.7149485067
5.73161666666691,2735.3575159044
5.75213333333329,2766.35529749829
5.77270000000093,2808.19943085513
5.79323333333376,2773.66862052111
5.81376666666674,2799.45744644639
5.83428333333313,2801.81209164511
5.85481666666755,2877.66902825189
5.87535000000054,2840.20144173083
5.89586666666692,2863.64723802083
5.91651666666728,2862.9311842465
5.93705000000027,2939.76493536356
5.95756666666665,2907.41768294195
5.97810000000107,2929.68805799939
5.9986333333339,2934.666644156
6.01915000000044,3013.34870916837
6.03968333333327,2971.48660414064
6.06019999999965,2985.916740101
6.08071666666763,3002.60203302557
6.10125000000046,3062.50412366717
6.121766666667,3041.66138944918
6.14229999999983,3049.67223806178
6.16283333333426,3053.12109978894
6.18335000000064,3130.92149983583
6.20390000000024,3105.45972106953
6.22443333333322,3115.93023616763
6.24495000000104,3121.05261034725
6.26548333333403,3200.24270235545
6.28601666666686,3182.08407058041
6.30668333333382,3225.47123043417
6.32721666666681,3188.883890926
6.34773333333319,3184.30978248984
6.36825000000101,3211.04733590734
6.388783333334,3217.06098694249
6.40931666666699,3281.56301747448
6.42983333333337,3287.82522176956
6.45036666666636,3271.92178196474
6.47090000000063,3278.81564893805
6.49143333333361,3307.62874517261
6.51201666666626,3318.36665696362
6.53255000000069,3389.27872898123
6.55311666666673,3374.73738118825
6.57364999999972,3371.79583712254
6.59418333333415,3386.98221043132
6.61470000000053,3437.94290182262
6.63521666666691,3467.05849971588
6.6557499999999,3498.89194280719
6.67626666666628,3489.99700016766
6.69685000000037,3491.35254018977
6.71738333333336,3501.35438225487
6.73790000000118,3567.14033732865
6.75843333333416,3577.92964136495
6.7789833333336,3571.12839191737
6.79949999999998,3572.7881387436
6.82003333333297,3587.20093704539
6.84054999999935,3592.64194789042
6.86113333333344,3614.00159487264
6.88166666666643,3663.95173812789
6.90225000000051,3650.49961674796
6.92275000000045,3658.70988346765
6.94333333333294,3675.19381098286
6.96391666666703,3738.5677844241
6.98443333333357,3740.07405794834
7.00496666666639,3717.71209990507
7.02555000000048,3719.18093531744
7.04606666666686,3746.13540077392
7.06661666666646,3783.57781929959
7.08720000000055,3811.95817568731
7.10776666666659,3788.35982321569
7.12830000000102,3804.11566952983
7.148833333334,3821.6667742463
7.16935000000039,3883.23470605342
7.18988333333337,3830.36039880885
7.21039999999976,3858.97817391382
7.23091666666614,3920.63050422257
7.25145000000056,3896.73833014408
7.27213333333397,3919.18306755416
7.29265000000035,3951.50674609307
7.31318333333334,3996.75053743006
7.33371666666633,4016.05634578251
7.35423333333415,4004.45238760369
7.37483333333341,3995.79695671066
7.39541666666733,4002.47494174284
7.41598333333354,4059.10203265254
7.43656666666762,4065.08776198819
7.45710000000061,4045.67128443638
7.47761666666699,4099.80266216647
7.49814999999982,4091.3312587019
7.5187166666673,4074.18002690536
7.53923333333384,4098.66097667915
7.55976666666683,4147.30685544394
7.58029999999966,4112.79037288366
7.60081666666764,4130.04323593064
7.62135000000047,4182.35674774879
7.64193333333312,4193.50858691462
7.66251666666721,4170.90907552029
7.68305000000003,4190.8767230773
7.70358333333318,4222.74069874847
7.724100000001,4264.54621354535
7.74463333333399,4222.49391337493
7.76516666666698,4229.86623193374
7.78580000000073,4256.78033674165
7.8063000000005,4313.08732942239
7.82683333333349,4288.04173077628
7.84734999999987,4284.90886228443
7.86788333333286,4286.866729317
7.88841666666729,4309.47799371666
7.90893333333367,4336.50697694764
7.92946666666666,4389.41925322616
7.95001666666753,4346.73906694175
7.97053333333391,4362.45941191971
7.9910666666669,4373.05686130514
8.01159999999989,4393.36245511504
8.03211666666627,4401.32845636466
8.0526500000007,4468.07944509632
8.07323333333335,4462.88393602103
8.09373333333312,4445.60746323832
8.11426666666611,4495.00107203506
8.13480000000054,4536.29503012747
8.15531666666692,4524.54398152179
8.1758499999999,4522.07082077047
8.19643333333399,4533.18892810452
8.21695000000037,4542.77081525871
8.23749999999997,4566.43409700349
8.25801666666635,4619.48571611182
8.27855000000062,4657.39181848939
8.29908333333361,4642.93981665695
8.31971666666592,4637.5285341297
8.34023333333374,4636.88999738484
8.36076666666672,4685.89997061179
8.38128333333311,4734.70788302626
8.40180000000109,4699.87840768587
8.42238333333357,4697.11065549101
8.44291666666656,4700.4851947449
8.46343333333294,4748.56184604607
8.48396666666737,4766.81134890436
8.50448333333375,4721.52997472111
8.52503333333335,4735.58481253952
8.54556666666634,4758.73243968612
8.56608333333416,4821.82859377255
8.58661666666714,4789.57008236199
8.60714999999997,4798.11061962879
8.62766666666651,4866.76138516867
8.64820000000078,4841.1363080585
8.66871666666732,4848.23139453471
8.6892333333337,4913.41518340419
8.70976666666669,4871.78166767126
8.73030000000096,4891.19850805792
8.7508166666659,4883.08165539987
8.77135000000033,4950.62455420784
8.79186666666671,4938.14546821811
8.8123999999997,4950.86098105033
8.83305000000005,4941.4892610066
8.85358333333288,4961.43010155036
8.87410000000086,4947.00041188263
8.89473333333317,4993.31959782233
8.9152666666676,5011.62923068673
8.93578333333398,5010.59521893826
8.95631666666697,5081.96629672187
8.97683333333335,5066.54666500656
8.99740000000083,5066.38623490422
9.01798333333348,5119.38110439781
9.03856666666757,5137.84464966414
9.05913333333361,5096.49556733441
9.07971666666626,5120.31113320587
9.10030000000035,5118.53206308364
9.12084999999994,5158.47521962549
9.14136666666632,5163.9280002849
9.16195000000041,5235.68347758832
9.1825333333329,5218.83033363915
9.20304999999944,5254.60241702016
9.22358333333387,5274.90105811255
9.2441166666667,5276.93024781902
9.26681666666688,5280.61752909696
9.28740000000097,5319.1472889605
9.30798333333362,5343.49577981481
9.3285,5303.86618805991
9.34903333333299,5308.15128848081
9.36956666666726,5297.25682860794
9.3900833333338,5340.86026893711
9.41068333333289,5346.42537069473
9.43126666666714,5368.85923908025
9.45183333333318,5378.06467998883
9.47241666666727,5382.27238813969
9.49299999999992,5391.70748405703
9.51358333333401,5407.91365183043
9.53415000000005,5424.8802303335
9.55471666666609,5410.70313342443
9.57530000000018,5461.629444675
9.59581666666656,5452.90141519565
9.61640000000065,5455.5824488079
9.6369833333333,5519.31335219595
9.65749999999968,5534.63264153868
9.67808333333377,5505.83109702682
9.69868333333286,5524.73124846235
9.71921666666729,5566.28828056324
9.73978333333349,5607.76237495461
9.76036666666758,5624.64428548526
9.78095000000023,5615.21645383037
9.80146666666661,5622.59170260876
9.82200000000104,5598.79386866177
9.84256666666708,5635.13560942518
9.86318333333278,5635.0918606606
9.88371666666721,5604.49571897908
9.90425000000004,5605.75863259592
9.92476666666658,5642.75235103065
9.94529999999957,5720.38641377018
9.96588333333365,5713.65284524345
9.9864666666663,5759.28406276899
10.0070500000004,5760.30964050736
10.0276333333329,5748.59196049655
10.0482166666671,5735.11808468829
10.0687833333332,5805.59493257836
10.0893666666673,5821.82521015269
10.1099499999999,5822.59051023179
10.1305166666674,5830.42873220491
10.1510833333334,5820.83495465719
10.1716666666661,5809.68242816291
10.19225,5887.65204872554
10.2128166666664,5857.93668271632
10.2334000000003,5862.87233272482
10.2542333333343,5879.51795238645
10.2748333333335,5913.0736994082
10.2954166666676,5940.0610756198
10.315933333334,5950.84135590434
10.336466666667,5955.52598907019
10.3569999999998,5924.86126756872
10.3775166666664,5904.08738928054
10.3980500000006,5932.77724391509
10.4185500000006,5917.27458286731
10.4390833333336,5994.69557311968
10.4596166666664,5987.99709435216
10.4801333333329,6067.52619972721
10.5007166666669,6014.7858868473
10.5213500000008,6060.93954918193
10.5419333333334,6090.04557006103
10.5625166666673,6129.60652677434
10.5831,6110.71350101808
10.6036833333341,6104.78828405012
10.6242666666667,6179.95510345696
10.6448333333329,6125.88014223504
10.6654166666669,6113.81932861628
10.6860000000009,6127.05914835629
10.7065666666671,6169.69293979086
10.7271333333332,6170.40507028175
10.7477166666673,6240.95644121112
10.7682999999999,6204.34471157302
10.7888666666674,6220.78268452142
10.8094500000001,6237.45391876574
10.8300833333338,6297.83418597109
10.8506000000002,6276.37467503397
10.8711999999994,6254.55246221179
10.8917833333335,6270.20119530486
10.9122999999999,6273.19074724595
10.9328333333343,6348.23054826094
10.9533666666673,6320.82159838066
10.9738833333337,6319.51001766616
10.9944166666667,6335.70458156924
11.0149833333342,6392.48224275317
11.0356166666665,6407.43083483155
11.0562333333336,6362.05152849967
11.0768166666663,6400.54237255715
11.0974000000004,6414.77010113935
11.1179666666664,6458.83055130747
11.1385500000005,6401.32925848121
11.1591499999997,6451.39216812649
11.1797333333338,6448.71641869934
11.2002999999999,6486.27684345684
11.220883333334,6525.95873241883
11.2414666666666,6514.23904048159
11.2620500000007,6542.12022122002
11.2825666666671,6540.56256393747
11.3031333333331,6528.91701378314
11.3237166666672,6523.60309204904
11.3442833333334,6595.80904919692
11.3648666666673,6545.3874810933
11.38545,6575.87664254457
11.4060166666662,6631.62712745442
11.4266000000001,6636.06085155121
11.4472000000008,6620.12365534084
11.4677833333335,6650.81057077353
11.4882999999998,6664.41588236637
11.5088333333328,6670.92164182746
11.5293666666673,6650.81057077353
11.5498833333336,6600.26926417906
11.5704166666681,6669.38426467288
11.5909166666664,6704.21745374177
11.6115500000002,6654.03032591567
11.6321333333328,6655.41070609406
11.6527166666669,6741.82705902345
11.6732833333329,6778.97666898608
11.693866666667,6754.42908645431
11.7144499999997,6754.11763288363
11.7350500000004,6748.46213894268
11.7556166666664,6822.21022420777
11.7761500000008,6801.83866324937
11.7967333333335,6831.60563257198
11.8172999999995,6804.45356663467
11.8378833333336,6807.17417506658
11.8584666666663,6833.65446782374
11.8790333333337,6824.41352247642
11.8995999999999,6842.59278820895
11.920183333334,6866.7346073008
11.9407666666667,6856.60317458085
11.9613333333342,6870.27375038013
11.9818666666671,6877.30488975586
12.0024,6933.72094122696
12.022933333333,6893.56356658064
12.0434666666674,6914.01037466208
12.0640000000004,6922.10050458783
12.0845666666664,6997.51995524259
12.1051500000005,6958.89815927907
12.1256833333335,6972.46232657272
12.1463000000006,6956.27435406745
12.166816666667,6974.93156242896
12.18735,7006.73904044967
12.2078666666664,7053.19330533086
12.2284000000008,7005.12071735685
12.2489333333338,7023.53927898856
12.26945,7046.02499516392
12.2899833333332,7094.01740071609
12.3105333333342,7119.54576182058
12.3310500000006,7103.42829427521
12.3516333333332,7094.34545997385
12.3721666666675,7098.44758898798
12.392683333334,7148.42606435489
12.4132166666669,7103.31878747115
12.4337499999999,7150.41110553394
12.4542666666662,7128.33388224577
12.4747833333341,7129.10340460861
12.4953666666667,7182.30935026768
12.5158833333331,7195.51211594811
12.5364166666661,7158.02601330163
12.5569500000005,7231.31554992021
12.5774666666669,7180.37001185276
12.5979999999999,7199.56704783887
12.6189,7214.36384872634
12.639433333333,7279.56647838293
12.6600500000001,7251.1108611239
12.6805833333331,7262.04069043322
12.7011666666672,7278.89154095505
12.7217333333334,7333.78828046698
12.7422666666664,7325.05988738531
12.7627833333342,7303.40260960154
12.7833000000006,7324.55014639385
12.8038333333336,7367.22237601771
12.8243666666664,7389.49265277075
12.8448833333329,7363.97382828502
12.8654166666672,7395.15795926951
12.8859500000002,7363.68894487945
12.9064833333332,7377.89123055994
12.9270166666662,7412.47036960979
12.9475500000006,7452.08243386957
12.968066666667,7418.90252702803
12.9886,7414.13523244451
13.0091333333328,7472.32631728796
13.0296500000008,7431.67069853712
13.0502166666668,7432.87978933826
13.0707500000012,7435.81708313962
13.0912666666676,7488.91508500709
13.1118000000006,7489.37971163431
13.132316666667,7459.70991603855
13.1528499999998,7475.74503452487
13.1733833333328,7522.91982512151
13.1939166666672,7525.37219616955
13.214550000001,7491.4709398043
13.235083333334,7498.21389143755
13.2556000000004,7547.3091990648
13.2761333333333,7555.63524477285
13.2966666666663,7534.07969565398
13.3171833333341,7540.10575421801
13.3377000000005,7574.8489866153
13.3582333333335,7601.79608740555
13.3787499999999,7597.42512540788
13.3992833333343,7616.34760400804
13.4198166666673,7582.14970962893
13.4403333333337,7596.77563699786
13.4608666666667,7600.85076711981
13.4814166666676,7601.55974453106
13.5019333333339,7608.00314281302
13.5224666666669,7617.82822962507
13.5429999999999,7642.69350504266
13.5635166666677,7642.57459167189
13.5841000000004,7654.29794741097
13.6046333333334,7698.70340314578
13.6251333333331,7722.97556513014
13.6456666666661,7674.93918245321
13.666183333334,7693.24856001209
13.6867666666666,7700.02283924998
13.7073500000007,7762.33836170278
13.7278833333337,7724.60092858541
13.7485000000008,7731.16668885058
13.7690500000004,7745.58627284924
13.7895833333334,7746.67355435728
13.8101000000012,7786.78737440315
13.8306333333342,7800.59922766682
13.851166666667,7804.68143229128
13.8716833333334,7856.75434099142
13.8922166666664,7869.23741707753
13.9127333333328,7826.90399014645
13.9332500000008,7838.77878254044
13.9537833333336,7851.2889650706
13.9743,7880.01783555429
13.9948833333341,7896.31454643617
14.0156166666673,7945.57416459683
14.0361500000001,7941.34090772899
14.0566666666667,7925.92513622267
14.0772166666675,7933.13121858376
14.0977500000005,8000.10359016339
14.1182666666669,7964.84515355919
14.138850000001,7969.15614644662
14.159383333334,7983.92249773123
14.1799000000004,8047.81291794327
14.2004333333334,8046.23174599171
14.2209499999997,8006.32325192016
14.2414666666676,8008.52353742799
14.2620000000005,8024.38747062971
14.2825333333335,8071.7034297758
14.3031500000007,8060.03244230799
14.3236833333337,8083.84048105924
14.3442166666667,8056.16784600605
14.3647500000011,8065.99219384763
14.3852833333339,8068.91064721217
14.4058166666669,8115.592050474
14.4263333333333,8124.16201599749
14.4468666666663,8107.41628247196
14.4673833333341,8100.39838375096
14.4879166666671,8139.6034646921
14.5084833333331,8128.13102499089
14.5289999999995,8191.90010528068
14.5495333333339,8173.94850035395
14.5700666666669,8171.04729043489
14.5905833333333,8171.56296708727
14.6111166666663,8231.65892545337
14.6316500000007,8229.77254870125
14.6521833333337,8205.039831618
14.6727166666667,8248.20426472918
14.6933000000006,8259.75867400171
14.7138166666672,8228.21182045187
14.73435,8236.73532835205
14.754883333333,8295.59586495985
14.7754000000008,8312.30386365773
14.7959166666672,8262.76485788859
14.8164500000002,8267.80004105407
14.8369666666665,8298.6842876657
14.8576000000003,8336.98331940666
14.8781333333333,8292.64022977999
14.8986499999997,8289.35775565165
14.9191833333341,8319.22319552777
14.9397333333337,8367.86446957152
14.9602500000001,8322.52068878793
14.9807833333329,8325.75384512521
15.0013166666673,8330.04519250048
15.0218333333339,8381.76207873548
15.0423666666669,8360.03098941561
15.0628833333332,8408.97768658257
15.0834000000011,8374.57685382894
15.103933333334,8383.35986737401
15.1244500000004,8382.69407469534
15.1449833333334,8453.64779703493
15.1655166666662,8430.87220547132
15.1860333333341,8419.27974121384
15.206566666667,8479.67795314655
15.2271666666663,8441.27598868136
15.2476833333341,8444.29954264023
15.2682166666671,8473.26195518205
15.2887500000001,8493.81533125272
15.3092666666665,8537.8431336685
15.3298000000009,8508.32264154186
15.3503333333337,8503.91281366652
15.3708500000001,8533.0727471545
15.3914666666673,8576.95487055248
15.4120500000001,8537.16143692893
15.4326166666676,8550.87719185417
15.4531500000005,8548.69166406311
15.4737333333332,8621.20230068293
15.4942499999996,8594.94804710256
15.514783333334,8599.41967344419
15.5353333333334,8612.99083551327
15.55585,8643.61192876805
15.5763833333342,8636.96403452553
15.5969166666672,8682.66589322525
15.6174333333336,8679.11221855955
15.6379666666666,8655.33142750938
15.658500000001,8651.30698498611
15.6789999999994,8675.0035109931
15.6995333333338,8692.71022803112
15.7200666666668,8753.44308774732
15.7405833333332,8735.00940116527
15.7611666666672,8766.63178624291
15.7817000000002,8703.39925390634
15.8022166666666,8778.36171394455
15.8227666666662,8743.37551754147
15.8433000000005,8762.46777507054
15.8638666666667,8764.23186308866
15.8846500000008,8825.92026097922
15.9051833333338,8819.08465073085
15.9257666666665,8849.18629407981
15.9462833333343,8800.18153244536
15.9668000000007,8829.83971575237
15.9873833333333,8833.90417488288
16.0079000000012,8852.40437030645
16.0284333333341,8862.42629572316
16.0489666666671,8896.47208177558
16.0694833333335,8845.46959814795
16.0900666666662,8850.40182577058
16.110616666667,8858.12930524136
16.1311333333334,8894.81597564004
16.1516666666664,8853.54895667692
16.1722500000005,8870.67008939278
16.1928166666665,8903.74951338418
16.2134000000006,8944.1020502149
16.2339833333333,8948.38329895359
16.2544833333332,8934.67866384932
16.2750166666676,8995.00484465755
16.2955500000005,8978.43072591066
16.316066666667,8981.49413962902
16.3365999999998,9019.9816934966
16.3571333333343,8926.57092174571
16.3776500000006,8966.91928347491
16.3982000000002,9021.52297795858
16.4187333333332,9004.73521102434
16.4394499999997,9041.00377922249
16.4600333333338,9033.93988225388
16.4806166666664,8996.9058841108
16.5011500000008,9098.68238485589
16.5216666666672,9032.10157652254
16.5422333333333,9029.08787263718
16.5628166666674,9027.6182766877
16.5833833333336,9030.33728874249
16.6039166666664,9069.92742715478
16.6245000000005,9074.36581938692
16.6450166666669,9121.52425711397
16.6656000000009,9142.35221547663
16.6862000000002,9121.82239791346
16.7068833333336,9137.26975417685
16.7275000000009,9129.80271013436
16.7480833333336,9158.3728283755
16.768766666667,9165.19723541903
16.7893500000011,9157.99806714406
16.8098666666673,9185.33693314421
16.8304000000004,9237.55204815617
16.8509166666668,9213.31958011688
16.8714333333332,9229.89397922007
16.8919666666662,9222.47193466451
16.9125500000003,9215.58756576885
16.9331666666674,9248.18203630441
16.9537999999997,9283.99524859314
16.9743500000008,9243.01674244633
16.9949333333334,9240.96694725601
17.0155000000009,9313.4783463684
17.0360833333335,9255.48116400377
17.0566666666676,9247.42217851116
17.077183333334,9305.11769440396
17.097716666667,9309.25833363487
17.1183000000011,9352.5851120348
17.1389166666668,9311.94348138586
17.1594833333343,9334.08034654221
17.1800666666669,9377.1848074122
17.2005999999999,9348.03117066407
17.2211666666674,9351.04104800296
17.24175,9422.13564730908
17.2623333333327,9381.29376249492
17.2828666666671,9439.01346050939
17.3034000000001,9407.09174619817
17.3239333333329,9458.99485024317
17.3443999999998,9452.3276054352
17.3649333333341,9449.81934290185
17.3854666666671,9423.69658031982
17.4059833333334,9491.64459828753
17.4266000000007,9447.07703116919
17.4471333333337,9457.97471385252
17.4676500000001,9504.1180478434
17.4882333333342,9467.00452124189
17.5089166666676,9476.6762998145
17.5295000000001,9507.51684078927
17.5500666666677,9451.38689431348
17.570666666667,9531.913428278
17.5912500000011,9528.10537463034
17.6118166666671,9517.2487277708
17.6323999999998,9563.65394105027
17.6529333333342,9561.74037928502
17.6735166666668,9559.90707419856
17.6940833333343,9628.72807554782
17.7146500000004,9604.61046549388
17.7351833333334,9577.06456446827
17.7557500000008,9590.90309634128
17.7762833333338,9638.96470413114
17.7968666666665,9664.34311902077
17.817433333334,9648.65184521988
17.8380166666666,9646.79403194721
17.8585666666676,9695.02534275359
17.879083333334,9692.3409970396
17.899616666667,9653.58164511504
17.9201499999998,9692.91031169728
17.9406666666662,9724.46259489257
17.9612000000006,9638.15808931654
17.9817333333336,9702.2704362287
18.0022333333336,9710.8283455953
18.0227666666664,9746.7302712313
18.0433000000008,9740.74657666009
18.0639166666667,9787.69718167674
18.0845000000008,9776.56633057091
18.1050833333333,9783.24256895917
18.1256666666673,9814.65444893689
18.14625,9753.04777461408
18.1668333333341,9810.26425912508
18.1873666666671,9806.62180951607
18.2079333333331,9842.97142208927
18.2285166666672,9832.41089264798
18.2490999999999,9828.42394525045
18.2696666666661,9845.63503322788
18.2902999999998,9835.23645083115
18.3108666666673,9836.1508632859
18.3314499999999,9862.39067988727
18.3520166666673,9896.786366219
18.3726000000001,9871.24430040538
18.3931333333329,9861.80642826725
18.4136500000009,9915.60883194006
18.4342000000003,9931.44815455179
18.4547333333333,9915.86128630388
18.4752999999995,9933.21982343262
18.4958333333338,9952.57064976916
18.5163666666667,9936.08925708377
18.5368833333331,9902.83054209526
18.5574166666676,10002.3506384478
18.5780499999999,9990.76381268588
18.5986000000009,9967.99082531844
18.6191833333336,10013.360075608
18.6397666666676,9922.59699800162
18.6603500000001,9994.42507691995
18.6808666666667,10034.9204648737
18.7014500000008,10044.6973600539
18.7220499999999,10048.5606854765
18.7426166666673,10027.8969828241
18.7632,10045.0406744128
18.7837833333341,10014.6414456724
18.8043666666667,10037.3204545976
18.8249333333344,10050.7938691113
18.845516666667,10093.8021561274
18.8661000000009,10095.4453457876
18.8866500000005,10110.3393412062
18.9072333333332,10077.7379478063
18.9277666666676,10095.0128874498
18.9483500000003,10109.2991244832
18.9688666666666,10113.200790108
18.9894000000011,10113.8946631661
19.0099166666673,10127.6137537793
19.0304666666669,10213.2673271519
19.0509999999999,10208.8655085166
19.0715166666662,10216.5265802929
19.0921000000003,10232.5822563749
19.1145166666676,10209.4815849022
19.1351000000002,10251.6000224506
19.1556333333332,10207.8095124943
19.1762000000007,10289.2675829095
19.1967666666667,10264.4572362023
19.2173500000008,10240.5364570584
19.2379333333335,10297.291028784
19.2585000000009,10268.5413603662
19.2790833333336,10288.6439492598
19.2997166666659,10326.794785468
19.3203166666666,10302.2883646901
19.3408833333341,10317.9296826045
19.3614666666667,10345.729267169
19.3820500000008,10313.4569183283
19.4026166666669,10277.78443936
19.4232000000009,10318.1086567812
19.4437833333336,10342.3152182581
19.4643499999998,10389.912844861
19.4848666666662,10403.1356432531
19.5054500000001,10373.1962161594
19.5260333333344,10377.7100144074
19.5466000000004,10384.3961550381
19.5671833333329,10457.1182930309
19.5877666666671,10420.5653011997
19.6083666666662,10404.495664735
19.6288833333342,10404.0422928335
19.649416666667,10407.2165559744
19.6699333333334,10410.0293326376
19.6904666666664,10484.966000409
19.7110000000008,10447.4360356296
19.7315833333335,10495.439519905
19.7522833333335,10476.1591779176
19.7728166666665,10473.3178379458
19.7933500000009,10473.1345680479
19.8138666666673,10503.0755363342
19.8344000000001,10547.8746768906
19.8549833333329,10516.2525017896
19.8755000000008,10523.635821571
19.8960500000002,10526.7762568491
19.9166333333343,10589.064055464
19.9371500000007,10594.7560930911
19.9576833333336,10553.9020594614
19.9782166666666,10585.6139188931
19.9987333333345,10588.5044502696
20.0192666666673,10646.1143812755
20.0398000000004,10632.3918958937
20.0603000000002,10593.1692898123
20.0808333333332,10641.4116592686
20.1013666666662,10686.5085695149
20.121883333334,10665.3365881465
20.142416666667,10654.5878070148
20.1629333333334,10679.2229718897
20.1834833333328,10671.4731919056
20.2040166666672,10685.372618002
20.2245333333336,10718.8712213583
20.2451666666674,10751.6815703521
20.2657000000003,10724.5821249963
20.2863833333338,10770.8332561621
20.3069000000001,10748.526922468
20.3274333333331,10721.6308691406
20.3480000000008,10765.5609524715
20.3685166666672,10741.267451982
20.38905,10732.1090908831
20.409583333333,10755.60310107
20.4301000000008,10814.9029221632
20.4506833333334,10805.255365812
20.4712333333329,10795.0444615942
20.4917500000009,10789.9449782145
20.5122833333338,10832.7884851112
20.5328666666665,10858.3966208573
20.5533833333343,10840.1502576822
